Freq[Hz]  Imp[Ohm]  Phase[Deg]
5.00000      6.961    25.278
5.07273      6.969    25.365
5.14651      6.979    25.480
5.22137      6.992    25.638
5.29732      7.008    25.819
5.37437      7.025    26.024
5.45254      7.043    26.235
5.53185      7.061    26.452
5.61231      7.079    26.674
5.69394      7.099    26.902
5.77676      7.118    27.134
5.86079      7.138    27.372
5.94604      7.159    27.614
6.03252      7.180    27.862
6.12027      7.202    28.114
6.20929      7.225    28.371
6.29961      7.248    28.632
6.39124      7.271    28.898
6.48420      7.295    29.169
6.57851      7.320    29.445
6.67420      7.346    29.726
6.77128      7.372    30.011
6.86977      7.399    30.301
6.96969      7.426    30.596
7.07107      7.455    30.895
7.17392      7.484    31.200
7.27827      7.513    31.509
7.38413      7.544    31.823
7.49154      7.575    32.143
7.60050      7.608    32.467
7.71105      7.641    32.797
7.82321      7.675    33.131
7.93701      7.710    33.472
8.05245      7.745    33.818
8.16958      7.782    34.169
8.28841      7.820    34.526
8.40896      7.858    34.890
8.53128      7.898    35.259
8.65537      7.939    35.635
8.78126      7.980    36.018
8.90899      8.023    36.408
9.03857      8.067    36.806
9.17004      8.113    37.211
9.30342      8.159    37.626
9.43874      8.207    38.049
9.57603      8.255    38.482
9.71532      8.306    38.927
9.85663      8.357    39.383
10.0000      8.410    39.853
10.1455      8.464    40.339
10.2930      8.520    40.843
10.4427      8.577    41.370
10.5946      8.635    41.924
10.7487      8.695    42.520
10.9051      8.761    43.166
11.0637      8.834    43.872
11.2246      8.927    44.617
11.3879      9.039    45.357
11.5535      9.173    46.051
11.7216      9.323    46.650
11.8921      9.477    47.136
12.0650      9.624    47.536
12.2405      9.759    47.907
12.4186      9.891    48.293
12.5992     10.026    48.684
12.7825     10.156    49.087
12.9684     10.290    49.508
13.1570     10.420    49.953
13.3484     10.550    50.458
13.5426     10.691    51.040
13.7395     10.856    51.674
13.9394     11.055    52.294
14.1421     11.275    52.834
14.3478     11.508    53.270
14.5565     11.733    53.626
14.7683     11.949    53.959
14.9831     12.160    54.316
15.2010     12.374    54.726
15.4221     12.606    55.184
15.6464     12.862    55.652
15.8740     13.138    56.098
16.1049     13.430    56.504
16.3392     13.726    56.883
16.5768     14.029    57.267
16.8179     14.342    57.679
17.0626     14.675    58.132
17.3107     15.037    58.623
17.5625     15.440    59.132
17.8180     15.886    59.640
18.0771     16.388    60.141
18.3401     16.987    60.553
18.6068     17.654    60.767
18.8775     18.360    60.745
19.1521     19.075    60.471
19.4306     19.732    60.010
19.7133     20.304    59.548
20.0000     20.845    59.224
20.2909     21.395    59.084
20.5860     22.005    59.118
20.8855     22.716    59.253
21.1893     23.527    59.419
21.4975     24.449    59.581
21.8102     25.465    59.767
22.1274     26.684    59.966
22.4492     28.138    60.092
22.7758     29.883    60.057
23.1071     32.006    59.670
23.4432     34.362    58.795
23.7841     36.905    57.456
24.1301     39.652    55.614
24.4811     42.341    53.425
24.8372     45.220    51.101
25.1984     48.659    48.425
25.5649     52.280    45.240
25.9368     56.182    41.515
26.3141     60.269    37.008
26.6968     63.865    31.741
27.0851     66.838    25.974
27.4791     69.066    19.848
27.8788     70.284    13.568
28.2843     70.618     7.319
28.6957     70.015     1.243
29.1131     68.734    -4.544
29.5365     66.820    -9.963
29.9661     64.616   -14.977
30.4020     62.328   -19.722
30.8442     59.739   -24.224
31.2929     57.004   -28.417
31.7480     54.167   -32.310
32.2098     51.088   -35.785
32.6783     48.062   -38.729
33.1536     45.214   -41.177
33.6359     42.650   -43.213
34.1251     40.431   -44.989
34.6215     38.456   -46.623
35.1250     36.701   -48.184
35.6359     35.097   -49.761
36.1543     33.487   -51.313
36.6802     31.920   -52.761
37.2137     30.369   -54.073
37.7550     28.831   -55.176
38.3041     27.359   -56.025
38.8613     26.004   -56.655
39.4265     24.725   -57.084
40.0000     23.557   -57.281
40.5818     22.532   -57.320
41.1721     21.616   -57.283
41.7710     20.780   -57.170
42.3785     20.084   -57.074
42.9949     19.414   -57.044
43.6203     18.785   -57.035
44.2548     18.155   -57.007
44.8985     17.556   -56.915
45.5515     16.991   -56.786
46.2141     16.444   -56.614
46.8863     15.927   -56.391
47.5683     15.429   -56.118
48.2602     14.943   -55.759
48.9621     14.492   -55.307
49.6743     14.074   -54.789
50.3968     13.690   -54.220
51.1299     13.342   -53.630
51.8736     13.020   -53.038
52.6281     12.716   -52.440
53.3936     12.437   -51.845
54.1702     12.169   -51.260
54.9581     11.914   -50.670
55.7575     11.668   -50.065
56.5685     11.434   -49.442
57.3914     11.213   -48.800
58.2261     11.010   -48.160
59.0730     10.814   -47.535
59.9323     10.618   -46.894
60.8040     10.429   -46.202
61.6884     10.254   -45.465
62.5857     10.097   -44.704
63.4960      9.962   -43.961
64.4196      9.841   -43.273
65.3566      9.724   -42.641
66.3073      9.602   -42.030
67.2717      9.481   -41.399
68.2502      9.370   -40.746
69.2429      9.276   -40.126
70.2501      9.189   -39.582
71.2719      9.099   -39.110
72.3086      8.998   -38.689
73.3603      8.877   -38.247
74.4274      8.747   -37.711
75.5099      8.620   -37.068
76.6083      8.504   -36.329
77.7226      8.411   -35.554
78.8531      8.329   -34.794
80.0000      8.258   -34.052
81.1636      8.195   -33.351
82.3442      8.132   -32.680
83.5419      8.076   -32.034
84.7570      8.023   -31.439
85.9899      7.962   -30.877
87.2406      7.896   -30.308
88.5096      7.825   -29.704
89.7970      7.752   -29.037
91.1031      7.685   -28.294
92.4282      7.633   -27.518
93.7726      7.591   -26.748
95.1366      7.559   -25.995
96.5204      7.535   -25.283
97.9243      7.515   -24.619
99.3486      7.498   -24.000
100.794      7.482   -23.425
102.260      7.464   -22.890
103.747      7.444   -22.381
105.256      7.422   -21.891
106.787      7.396   -21.403
108.340      7.371   -20.907
109.916      7.347   -20.423
111.515      7.322   -19.954
113.137      7.293   -19.482
114.783      7.263   -18.991
116.452      7.234   -18.489
118.146      7.205   -17.971
119.865      7.176   -17.427
121.608      7.152   -16.864
123.377      7.133   -16.303
125.171      7.116   -15.747
126.992      7.105   -15.204
128.839      7.098   -14.699
130.713      7.090   -14.243
132.615      7.075   -13.816
134.543      7.053   -13.372
136.500      7.029   -12.886
138.486      7.005   -12.354
140.500      6.986   -11.779
142.544      6.977   -11.195
144.617      6.973   -10.632
146.721      6.972   -10.099
148.855      6.972    -9.593
151.020      6.972    -9.106
153.217      6.972    -8.633
155.445      6.972    -8.170
157.706      6.972    -7.717
160.000      6.972    -7.271
162.327      6.972    -6.832
164.688      6.972    -6.398
167.084      6.972    -5.968
169.514      6.972    -5.543
171.980      6.972    -5.120
174.481      6.972    -4.700
177.019      6.972    -4.282
179.594      6.972    -3.865
182.206      6.972    -3.448
184.856      6.972    -3.031
187.545      6.972    -2.612
190.273      6.972    -2.191
193.041      6.972    -1.766
195.849      6.972    -1.334
198.697      6.972    -0.889
201.587      6.973    -0.430
204.520      6.977     0.045
207.494      6.987     0.522
210.512      7.002     0.974
213.574      7.018     1.392
216.681      7.034     1.775
219.833      7.047     2.131
223.030      7.053     2.487
226.274      7.055     2.874
229.565      7.059     3.300
232.905      7.066     3.763
236.292      7.083     4.232
239.729      7.107     4.660
243.216      7.132     5.040
246.754      7.156     5.373
250.343      7.174     5.677
253.984      7.183     5.999
257.678      7.192     6.366
261.426      7.208     6.758
265.229      7.231     7.131
269.087      7.256     7.463
273.001      7.281     7.749
276.972      7.300     7.997
281.000      7.309     8.246
285.088      7.314     8.532
289.234      7.317     8.862
293.441      7.324     9.229
297.709      7.338     9.604
302.040      7.355     9.963
306.433      7.371    10.302
310.890      7.387    10.627
315.412      7.398    10.954
320.000      7.407    11.308
324.655      7.421    11.685
329.377      7.438    12.057
334.168      7.455    12.420
339.028      7.473    12.773
343.959      7.487    13.123
348.962      7.499    13.499
354.038      7.512    13.907
359.188      7.528    14.346
364.412      7.555    14.790
369.713      7.587    15.200
375.090      7.618    15.583
380.546      7.650    15.950
386.081      7.681    16.301
391.697      7.709    16.657
397.394      7.739    17.034
403.175      7.778    17.407
409.039      7.824    17.728
414.989      7.866    17.995
421.025      7.906    18.222
427.149      7.937    18.415
433.362      7.957    18.615
439.665      7.971    18.858
446.060      7.982    19.154
452.548      7.994    19.503
459.131      8.012    19.892
465.809      8.038    20.295
472.584      8.068    20.688
479.458      8.100    21.071
486.432      8.135    21.443
493.507      8.169    21.806
500.686      8.199    22.188
507.968      8.237    22.590
515.357      8.281    22.984
522.853      8.328    23.363
530.458      8.382    23.705
538.174      8.430    24.024
546.002      8.482    24.333
553.943      8.536    24.601
562.001      8.580    24.863
570.175      8.631    25.125
578.469      8.679    25.352
586.883      8.718    25.580
595.419      8.758    25.820
604.080      8.794    26.069
612.866      8.827    26.345
621.780      8.864    26.642
630.824      8.901    26.954
640.000      8.941    27.276
649.309      8.982    27.615
658.753      9.031    27.956
668.335      9.083    28.278
678.056      9.136    28.588
687.919      9.194    28.870
697.925      9.245    29.128
708.077      9.293    29.388
718.376      9.337    29.660
728.825      9.378    29.966
739.426      9.425    30.306
750.181      9.480    30.650
761.093      9.538    30.990
772.163      9.605    31.309
783.394      9.674    31.581
794.789      9.735    31.825
806.349      9.790    32.072
818.078      9.842    32.334
829.977      9.887    32.645
842.050      9.946    32.996
854.298     10.014    33.341
866.724     10.084    33.676
879.330     10.166    33.981
892.120     10.246    34.238
905.097     10.318    34.483
918.262     10.392    34.729
931.618     10.463    34.977
945.169     10.536    35.240
958.917     10.614    35.504
972.864     10.699    35.749
987.015     10.789    35.954
1001.37     10.871    36.125
1015.94     10.952    36.273
1030.71     11.023    36.405
1045.71     11.085    36.555
1060.92     11.145    36.726
1076.35     11.199    36.924
1092.00     11.255    37.153
1107.89     11.309    37.410
1124.00     11.364    37.706
1140.35     11.429    38.028
1156.94     11.498    38.364
1173.77     11.580    38.696
1190.84     11.662    39.010
1208.16     11.746    39.319
1225.73     11.832    39.624
1243.56     11.917    39.938
1261.65     12.009    40.266
1280.00     12.110    40.590
1298.62     12.221    40.884
1317.51     12.331    41.135
1336.67     12.432    41.374
1356.11     12.535    41.616
1375.84     12.633    41.866
1395.85     12.736    42.133
1416.15     12.845    42.400
1436.75     12.960    42.645
1457.65     13.072    42.863
1478.85     13.173    43.084
1500.36     13.270    43.337
1522.19     13.371    43.614
1544.33     13.468    43.926
1566.79     13.573    44.289
1589.58     13.694    44.676
1612.70     13.826    45.078
1636.16     13.977    45.488
1659.95     14.151    45.872
1684.10     14.343    46.193
1708.60     14.538    46.445
1733.45     14.731    46.639
1758.66     14.913    46.795
1784.24     15.074    46.970
1810.19     15.233    47.206
1836.52     15.398    47.517
1863.24     15.587    47.907
1890.34     15.818    48.344
1917.83     16.102    48.776
1945.73     16.435    49.173
1974.03     16.851    49.474
2002.74     17.349    49.557
2031.87     17.887    49.375
2061.43     18.489    48.872
2091.41     19.130    47.907
2121.83     19.707    46.446
2152.69     20.180    44.517
2184.01     20.428    42.210
2215.77     20.359    39.822
2248.00     20.009    37.682
2280.70     19.401    36.100
2313.87     18.674    35.327
2347.53     17.999    35.345
2381.68     17.443    35.988
2416.32     17.064    37.042
2451.46     16.859    38.260
2487.12     16.784    39.467
2523.30     16.801    40.569
2560.00     16.865    41.550
2597.24     16.966    42.429
2635.01     17.092    43.217
2673.34     17.245    43.912
2712.23     17.407    44.508
2751.68     17.566    45.041
2791.70     17.734    45.517
2832.31     17.893    45.951
2873.50     18.049    46.378
2915.30     18.214    46.802
2957.70     18.387    47.208
3000.72     18.566    47.592
3044.37     18.745    47.965
3088.65     18.932    48.339
3133.58     19.137    48.693
3179.16     19.352    49.008
3225.40     19.566    49.289
3272.31     19.785    49.536
3319.91     19.992    49.760
3368.20     20.194    49.994
3417.19     20.405    50.238
3466.89     20.630    50.475
3517.32     20.870    50.677
3568.48     21.107    50.837
3620.39     21.334    50.975
3673.05     21.558    51.103
3726.47     21.773    51.235
3780.67     21.994    51.378
3835.67     22.228    51.507
3891.46     22.461    51.607
3948.06     22.686    51.688
4005.49     22.903    51.762
4063.75     23.111    51.831
4122.86     23.300    51.915
4182.82     23.477    52.045
4243.66     23.664    52.225
4305.39     23.866    52.443
4368.01     24.095    52.682
4431.55     24.361    52.905
4496.01     24.648    53.078
4561.40     24.942    53.186
4627.75     25.221    53.244
4695.06     25.482    53.284
4763.35     25.736    53.314
4832.64     25.967    53.346
4902.93     26.187    53.409
4974.24     26.414    53.490
5046.60     26.626    53.595
5120.00     26.843    53.746
5194.47     27.087    53.922
5270.03     27.343    54.108
5346.68     27.626    54.302
5424.45     27.945    54.470
5503.35     28.281    54.593
5583.40     28.636    54.650
5664.61     28.977    54.631
5747.01     29.275    54.577
5830.60     29.547    54.520
5915.41     29.777    54.492
6001.45     29.998    54.525
6088.74     30.235    54.599
6177.30     30.481    54.698
6267.15     30.744    54.811
6358.31     31.017    54.926
6450.80     31.300    55.048
6544.62     31.604    55.165
6639.82     31.921    55.263
6736.40     32.247    55.331
6834.38     32.563    55.365
6933.79     32.858    55.381
7034.64     33.110    55.417
7136.96     33.359    55.503
7240.77     33.613    55.628
7346.09     33.868    55.800
7452.94     34.157    56.020
7561.35     34.495    56.255
7671.33     34.885    56.467
7782.91     35.302    56.638
7896.12     35.746    56.754
8010.97     36.205    56.792
8127.49     36.617    56.775
8245.71     37.000    56.748
8365.65     37.371    56.716
8487.33     37.712    56.688
8610.78     38.033    56.679
8736.03     38.340    56.696
8863.09     38.636    56.746
8992.01     38.922    56.842
9122.80     39.227    56.990
9255.50     39.572    57.169
9390.12     39.953    57.352
9526.70     40.352    57.537
9665.27     40.786    57.725
9805.86     41.267    57.896
9948.49     41.782    58.035
10093.2     42.346    58.114
10240.0     42.913    58.107
10388.9     43.445    58.026
10540.1     43.911    57.907
10693.4     44.298    57.802
10848.9     44.643    57.756
11006.7     44.976    57.786
11166.8     45.358    57.872
11329.2     45.785    57.972
11494.0     46.247    58.069
11661.2     46.752    58.138
11830.8     47.255    58.166
12002.9     47.735    58.179
12177.5     48.222    58.188
12354.6     48.709    58.180
12534.3     49.166    58.164
12716.6     49.600    58.165
12901.6     50.025    58.192
13089.2     50.461    58.249
13279.6     50.923    58.324
13472.8     51.402    58.414
13668.8     51.945    58.496
13867.6     52.506    58.538
14069.3     53.064    58.545
14273.9     53.595    58.529
14481.5     54.104    58.501
14692.2     54.557    58.487
14905.9     54.990    58.519
15122.7     55.453    58.590
15342.7     55.938    58.684
15565.8     56.461    58.793
15792.2     57.033    58.895
16021.9     57.638    58.968
16255.0     58.234    59.013
16491.4     58.804    59.056
16731.3     59.391    59.105
16974.7     59.988    59.147
17221.6     60.587    59.182
17472.1     61.173    59.219
17726.2     61.758    59.270
17984.0     62.375    59.327
18245.6     62.992    59.389
18511.0     63.661    59.455
18780.2     64.393    59.489
19053.4     65.143    59.456
19330.5     65.821    59.367
19611.7     66.398    59.271
19897.0     66.899    59.204
20186.4     67.331    59.196
20480.0     67.724    59.282
20777.9     68.165    59.481
21080.1     68.793    59.743
21386.7     69.603    59.978
21697.8     70.500    60.145
22013.4     71.498    60.209
22333.6     72.440    60.153
22658.4     73.224    60.051
22988.0     73.936    59.962
23322.4     74.600    59.893
23661.6     75.212    59.858
24005.8     75.829    59.854
24355.0     76.404    59.887
24709.2     76.982    59.983
25068.6     77.678    60.117
25433.2     78.441    60.244
25803.2     79.226    60.370
26178.5     80.116    60.469
26559.3     80.974    60.531
26945.6     81.809    60.602
27337.5     82.737    60.665
27735.2     83.674    60.694
28138.6     84.610    60.691
28547.9     85.526    60.656
28963.1     86.354    60.608
29384.4     87.131    60.576
29811.8     87.851    60.578
30245.4     88.566    60.630
30685.3     89.339    60.726
31131.7     90.202    60.838
31584.5     91.156    60.932
32043.9     92.114    60.998
32510.0     93.077    61.044
32982.8     94.007    61.078
33462.6     94.890    61.126
33949.3     95.775    61.203
34443.1     96.690    61.310
34944.1     97.688    61.432
35452.4     98.720    61.565
35968.0     99.880    61.701
36491.2    101.167    61.798
37022.0    102.497    61.839
37560.5    103.860    61.817
38106.8    105.078    61.733
38661.1    106.043    61.625
39223.4    106.720    61.535
39793.9    107.209    61.454
