Freq[Hz]     dBSPL  Phase[Deg]
5.00000     55.005   155.085
5.07273     55.116   154.981
5.14651     55.260   154.844
5.22137     55.453   154.659
5.29732     55.666   154.465
5.37437     55.900   154.248
5.45254     56.135   154.034
5.53185     56.370   153.817
5.61231     56.604   153.597
5.69394     56.839   153.373
5.77676     57.073   153.147
5.86079     57.309   152.918
5.94604     57.543   152.684
6.03252     57.778   152.448
6.12027     58.013   152.208
6.20929     58.247   151.965
6.29961     58.482   151.717
6.39124     58.716   151.465
6.48420     58.951   151.211
6.57851     59.185   150.951
6.67420     59.420   150.688
6.77128     59.655   150.422
6.86977     59.890   150.150
6.96969     60.125   149.874
7.07107     60.359   149.593
7.17392     60.594   149.309
7.27827     60.828   149.019
7.38413     61.063   148.724
7.49154     61.298   148.425
7.60050     61.533   148.122
7.71105     61.768   147.812
7.82321     62.002   147.497
7.93701     62.237   147.178
8.05245     62.471   146.852
8.16958     62.706   146.521
8.28841     62.941   146.184
8.40896     63.176   145.841
8.53128     63.410   145.492
8.65537     63.645   145.137
8.78126     63.880   144.774
8.90899     64.115   144.406
9.03857     64.350   144.030
9.17004     64.584   143.647
9.30342     64.819   143.256
9.43874     65.053   142.858
9.57603     65.289   142.451
9.71532     65.524   142.036
9.85663     65.758   141.612
10.0000     65.993   141.175
10.1455     66.228   140.724
10.2930     66.460   140.263
10.4427     66.688   139.800
10.5946     66.918   139.346
10.7487     67.146   138.907
10.9051     67.384   138.463
11.0637     67.623   137.986
11.2246     67.857   137.499
11.3879     68.096   137.004
11.5535     68.332   136.502
11.7216     68.578   135.999
11.8921     68.837   135.439
12.0650     69.101   134.762
12.2405     69.352   133.963
12.4186     69.583   133.081
12.5992     69.789   132.182
12.7825     69.970   131.364
12.9684     70.151   130.658
13.1570     70.336   130.025
13.3484     70.526   129.435
13.5426     70.727   128.852
13.7395     70.924   128.262
13.9394     71.124   127.677
14.1421     71.321   127.108
14.3478     71.524   126.563
14.5565     71.732   126.026
14.7683     71.950   125.475
14.9831     72.172   124.894
15.2010     72.398   124.291
15.4221     72.639   123.628
15.6464     72.881   122.862
15.8740     73.121   121.995
16.1049     73.356   121.005
16.3392     73.569   119.904
16.5768     73.753   118.767
16.8179     73.910   117.681
17.0626     74.054   116.686
17.3107     74.190   115.787
17.5625     74.321   115.010
17.8180     74.465   114.333
18.0771     74.623   113.692
18.3401     74.789   113.051
18.6068     74.960   112.408
18.8775     75.143   111.746
19.1521     75.332   111.037
19.4306     75.527   110.269
19.7133     75.725   109.425
20.0000     75.923   108.484
20.2909     76.117   107.415
20.5860     76.285   106.238
20.8855     76.429   105.025
21.1893     76.548   103.814
21.4975     76.634   102.677
21.8102     76.702   101.699
22.1274     76.769   100.875
22.4492     76.832   100.199
22.7758     76.910    99.657
23.1071     77.006    99.190
23.4432     77.114    98.763
23.7841     77.240    98.351
24.1301     77.383    97.901
24.4811     77.531    97.394
24.8372     77.686    96.821
25.1984     77.842    96.151
25.5649     77.980    95.422
25.9368     78.103    94.718
26.3141     78.226    94.059
26.6968     78.346    93.432
27.0851     78.465    92.865
27.4791     78.598    92.338
27.8788     78.745    91.797
28.2843     78.903    91.198
28.6957     79.066    90.496
29.1131     79.217    89.705
29.5365     79.354    88.871
29.9661     79.479    88.040
30.4020     79.595    87.239
30.8442     79.703    86.498
31.2929     79.822    85.801
31.7480     79.948    85.084
32.2098     80.070    84.353
32.6783     80.201    83.592
33.1536     80.325    82.775
33.6359     80.444    81.926
34.1251     80.555    81.038
34.6215     80.643    80.175
35.1250     80.732    79.368
35.6359     80.817    78.592
36.1543     80.898    77.870
36.6802     80.993    77.153
37.2137     81.078    76.425
37.7550     81.161    75.723
38.3041     81.245    75.034
38.8613     81.322    74.376
39.4265     81.406    73.758
40.0000     81.494    73.158
40.5818     81.597    72.536
41.1721     81.701    71.839
41.7710     81.793    71.088
42.3785     81.877    70.317
42.9949     81.941    69.568
43.6203     81.995    68.921
44.2548     82.060    68.369
44.8985     82.138    67.847
45.5515     82.228    67.304
46.2141     82.321    66.726
46.8863     82.422    66.088
47.5683     82.515    65.384
48.2602     82.596    64.666
48.9621     82.674    63.953
49.6743     82.749    63.230
50.3968     82.816    62.513
51.1299     82.881    61.819
51.8736     82.950    61.114
52.6281     83.013    60.365
53.3936     83.047    59.648
54.1702     83.076    59.056
54.9581     83.117    58.558
55.7575     83.170    58.101
56.5685     83.235    57.654
57.3914     83.316    57.144
58.2261     83.393    56.546
59.0730     83.457    55.912
59.9323     83.515    55.281
60.8040     83.567    54.674
61.6884     83.621    54.088
62.5857     83.673    53.512
63.4960     83.727    52.939
64.4196     83.783    52.348
65.3566     83.834    51.739
66.3073     83.884    51.110
67.2717     83.923    50.466
68.2502     83.944    49.870
69.2429     83.965    49.357
70.2501     83.987    48.924
71.2719     84.028    48.530
72.3086     84.078    48.101
73.3603     84.130    47.621
74.4274     84.183    47.086
75.5099     84.223    46.506
76.6083     84.247    45.939
77.7226     84.266    45.421
78.8531     84.279    44.954
80.0000     84.293    44.536
81.1636     84.308    44.155
82.3442     84.322    43.808
83.5419     84.337    43.497
84.7570     84.353    43.221
85.9899     84.369    42.994
87.2406     84.387    42.820
88.5096     84.412    42.706
89.7970     84.448    42.642
91.1031     84.499    42.603
92.4282     84.567    42.557
93.7726     84.648    42.489
95.1366     84.759    42.335
96.5204     84.878    42.006
97.9243     84.986    41.527
99.3486     85.087    40.920
100.794     85.163    40.209
102.260     85.206    39.504
103.747     85.237    38.870
105.256     85.259    38.308
106.787     85.282    37.813
108.340     85.305    37.356
109.916     85.329    36.930
111.515     85.353    36.528
113.137     85.377    36.147
114.783     85.403    35.786
116.452     85.428    35.446
118.146     85.457    35.129
119.865     85.489    34.829
121.608     85.527    34.531
123.377     85.572    34.214
125.171     85.621    33.859
126.992     85.669    33.461
128.839     85.715    33.021
130.713     85.754    32.547
132.615     85.787    32.054
134.543     85.814    31.541
136.500     85.834    31.003
138.486     85.839    30.458
140.500     85.831    29.921
142.544     85.790    29.470
144.617     85.732    29.234
146.721     85.687    29.216
148.855     85.658    29.387
151.020     85.679    29.659
153.217     85.753    29.817
155.445     85.841    29.760
157.706     85.932    29.478
160.000     85.997    29.000
162.327     86.013    28.495
164.688     86.002    28.116
167.084     85.984    27.893
169.514     85.967    27.827
171.980     85.967    27.889
174.481     85.992    27.990
177.019     86.029    28.089
179.594     86.079    28.188
182.206     86.141    28.287
184.856     86.229    28.354
187.545     86.346    28.284
190.273     86.471    27.992
193.041     86.585    27.466
195.849     86.670    26.740
198.697     86.696    25.970
201.587     86.683    25.335
204.520     86.654    24.890
207.494     86.620    24.636
210.512     86.595    24.558
213.574     86.594    24.591
216.681     86.612    24.678
219.833     86.655    24.761
223.030     86.717    24.773
226.274     86.790    24.665
229.565     86.852    24.444
232.905     86.898    24.183
236.292     86.927    23.958
239.729     86.950    23.818
243.216     86.979    23.763
246.754     87.027    23.732
250.343     87.081    23.680
253.984     87.141    23.603
257.678     87.202    23.505
261.426     87.263    23.403
265.229     87.325    23.311
269.087     87.393    23.232
273.001     87.470    23.158
276.972     87.562    23.048
281.000     87.665    22.853
285.088     87.769    22.563
289.234     87.870    22.180
293.441     87.959    21.724
297.709     88.033    21.250
302.040     88.102    20.786
306.433     88.167    20.334
310.890     88.232    19.886
315.412     88.297    19.426
320.000     88.363    18.939
324.655     88.423    18.418
329.377     88.478    17.866
334.168     88.516    17.318
339.028     88.542    16.832
343.959     88.568    16.419
348.962     88.595    16.077
354.038     88.632    15.792
359.188     88.687    15.505
364.412     88.748    15.176
369.713     88.814    14.793
375.090     88.877    14.354
380.546     88.933    13.876
386.081     88.976    13.391
391.697     89.006    12.962
397.394     89.031    12.632
403.175     89.058    12.431
409.039     89.105    12.368
414.989     89.191    12.379
421.025     89.329    12.323
427.149     89.514    12.030
433.362     89.717    11.380
439.665     89.911    10.347
446.060     90.071     8.962
452.548     90.170     7.340
459.131     90.196     5.675
465.809     90.163     4.146
472.584     90.091     2.851
479.458     89.993     1.841
486.432     89.893     1.122
493.507     89.817     0.616
500.686     89.753     0.269
507.968     89.724     0.025
515.357     89.731    -0.260
522.853     89.740    -0.616
530.458     89.762    -1.023
538.174     89.793    -1.560
546.002     89.792    -2.162
553.943     89.777    -2.701
562.001     89.758    -3.170
570.175     89.729    -3.533
578.469     89.709    -3.766
586.883     89.712    -3.928
595.419     89.732    -4.073
604.080     89.771    -4.239
612.866     89.821    -4.462
621.780     89.873    -4.721
630.824     89.930    -4.984
640.000     89.988    -5.197
649.309     90.088    -5.384
658.753     90.233    -5.731
668.335     90.398    -6.366
678.056     90.562    -7.343
687.919     90.696    -8.659
697.925     90.766   -10.170
708.077     90.776   -11.675
718.376     90.737   -13.019
728.825     90.680   -14.136
739.426     90.617   -15.042
750.181     90.569   -15.796
761.093     90.536   -16.475
772.163     90.518   -17.150
783.394     90.508   -17.880
794.789     90.486   -18.671
806.349     90.442   -19.467
818.078     90.368   -20.167
829.977     90.272   -20.653
842.050     90.167   -20.834
854.298     90.088   -20.693
866.724     90.061   -20.318
879.330     90.098   -19.840
892.120     90.213   -19.453
905.097     90.375   -19.324
918.262     90.554   -19.471
931.618     90.749   -19.893
945.169     90.938   -20.593
958.917     91.100   -21.474
972.864     91.245   -22.432
987.015     91.381   -23.408
1001.37     91.517   -24.360
1015.94     91.681   -25.305
1030.71     91.895   -26.410
1045.71     92.135   -27.867
1060.92     92.373   -29.781
1076.35     92.570   -32.154
1092.00     92.692   -34.844
1107.89     92.737   -37.625
1124.00     92.720   -40.347
1140.35     92.665   -42.961
1156.94     92.577   -45.488
1173.77     92.450   -47.915
1190.84     92.292   -50.229
1208.16     92.083   -52.367
1225.73     91.826   -54.175
1243.56     91.552   -55.563
1261.65     91.279   -56.518
1280.00     91.040   -57.089
1298.62     90.853   -57.400
1317.51     90.726   -57.590
1336.67     90.659   -57.796
1356.11     90.641   -58.147
1375.84     90.652   -58.741
1395.85     90.661   -59.573
1416.15     90.662   -60.602
1436.75     90.631   -61.754
1457.65     90.568   -62.887
1478.85     90.494   -63.937
1500.36     90.411   -64.893
1522.19     90.330   -65.752
1544.33     90.252   -66.532
1566.79     90.176   -67.225
1589.58     90.110   -67.822
1612.70     90.053   -68.322
1636.16     90.017   -68.735
1659.95     90.006   -69.102
1684.10     90.013   -69.433
1708.60     90.054   -69.762
1733.45     90.118   -70.135
1758.66     90.203   -70.551
1784.24     90.305   -71.013
1810.19     90.421   -71.487
1836.52     90.554   -71.897
1863.24     90.733   -72.224
1890.34     90.970   -72.493
1917.83     91.308   -72.818
1945.73     91.755   -73.401
1974.03     92.321   -74.485
2002.74     92.993   -76.402
2031.87     93.702   -79.398
2061.43     94.402   -83.542
2091.41     95.060   -88.937
2121.83     95.575   -95.654
2152.69     95.959  -103.334
2184.01     96.194  -111.870
2215.77     96.226  -121.070
2248.00     96.025  -130.517
2280.70     95.618  -139.899
2313.87     94.974  -148.903
2347.53     94.127  -157.112
2381.68     93.126  -164.370
2416.32     91.924  -170.252
2451.46     90.647  -174.496
2487.12     89.353  -177.405
2523.30     88.027  -178.977
2560.00     86.891  -179.585
2597.24     85.865  -179.762
2635.01     84.900  -179.434
2673.34     84.069  -178.718
2712.23     83.279  -177.741
2751.68     82.596  -176.496
2791.70     82.044  -175.240
2832.31     81.584  -174.194
2873.50     81.185  -173.387
2915.30     80.844  -172.848
2957.70     80.544  -172.642
3000.72     80.255  -172.759
3044.37     79.986  -173.191
3088.65     79.720  -173.992
3133.58     79.439  -175.184
3179.16     79.107  -176.688
3225.40     78.714  -178.357
3272.31     78.248   179.975
3319.91     77.714   178.487
3368.20     77.144   177.263
3417.19     76.568   176.227
3466.89     75.986   175.264
3517.32     75.398   174.308
3568.48     74.801   173.219
3620.39     74.107   172.134
3673.05     73.334   171.352
3726.47     72.478   171.024
3780.67     71.514   171.440
3835.67     70.530   172.667
3891.46     69.526   174.646
3948.06     68.523   177.582
4005.49     67.579  -178.511
4063.75     66.684  -173.608
4122.86     65.946  -167.848
4182.82     65.389  -161.570
4243.66     65.058  -155.143
4305.39     64.926  -148.937
4368.01     64.937  -143.128
4431.55     65.069  -137.794
4496.01     65.282  -132.974
4561.40     65.561  -128.655
4627.75     65.889  -124.856
4695.06     66.242  -121.542
4763.35     66.606  -118.587
4832.64     67.011  -115.947
4902.93     67.439  -113.601
4974.24     67.932  -111.611
5046.60     68.467  -110.193
5120.00     68.977  -109.323
5194.47     69.478  -108.890
5270.03     69.959  -108.863
5346.68     70.400  -109.056
5424.45     70.856  -109.373
5503.35     71.337  -109.973
5583.40     71.820  -110.945
5664.61     72.249  -112.262
5747.01     72.599  -113.694
5830.60     72.888  -114.854
5915.41     73.184  -115.347
6001.45     73.665  -115.191
6088.74     74.421  -114.885
6177.30     75.520  -115.243
6267.15     76.868  -117.255
6358.31     78.306  -121.662
6450.80     79.696  -128.896
6544.62     80.871  -139.002
6639.82     81.774  -151.771
6736.40     82.299  -166.836
6834.38     82.399   176.353
6933.79     81.885   159.165
7034.64     80.740   143.732
7136.96     79.059   131.620
7240.77     76.762   123.968
7346.09     74.083   121.186
7452.94     71.635   122.280
7561.35     69.581   125.917
7671.33     68.345   130.528
7782.91     67.635   134.830
7896.12     67.431   137.990
8010.97     67.544   139.011
8127.49     67.672   137.649
8245.71     67.687   134.252
8365.65     67.392   129.677
8487.33     66.750   125.305
8610.78     65.875   122.102
8736.03     64.835   120.505
8863.09     63.825   120.479
8992.01     63.032   121.387
9122.80     62.492   122.359
9255.50     62.177   122.777
9390.12     61.961   122.362
9526.70     61.808   121.036
9665.27     61.654   118.771
9805.86     61.516   115.361
9948.49     61.318   110.546
10093.2     61.011   104.162
10240.0     60.300    97.090
10388.9     59.142    91.252
10540.1     57.627    87.738
10693.4     55.657    87.265
10848.9     53.603    89.941
11006.7     52.051    94.240
11166.8     50.885    98.706
11329.2     50.150   102.651
11494.0     49.533   105.785
11661.2     48.972   108.210
11830.8     48.381   110.097
12002.9     47.714   111.851
12177.5     46.973   113.888
12354.6     46.189   116.436
12534.3     45.372   119.715
12716.6     44.621   123.811
12901.6     44.047   128.334
13089.2     43.637   132.810
13279.6     43.404   136.847
13472.8     43.280   140.106
13668.8     43.190   142.475
13867.6     43.063   144.003
14069.3     42.832   144.939
14273.9     42.460   145.684
14481.5     41.933   146.783
14692.2     41.285   148.755
14905.9     40.596   151.857
15122.7     39.934   156.165
15342.7     39.432   161.473
15565.8     39.173   167.280
15792.2     39.166   173.086
16021.9     39.433   178.370
16255.0     39.888  -177.358
16491.4     40.486  -174.431
16731.3     41.116  -173.151
16974.7     41.654  -173.502
17221.6     42.032  -175.219
17472.1     42.191  -177.854
17726.2     42.102   179.286
17984.0     41.795   176.781
18245.6     41.279   175.203
18511.0     40.647   175.007
18780.2     40.004   176.248
19053.4     39.445   178.721
19330.5     39.083  -178.028
19611.7     38.973  -174.683
19897.0     39.050  -171.873
20186.4     39.217  -169.875
20480.0     39.389  -168.642
20777.9     39.533  -168.026
21080.1     39.615  -167.828
21386.7     39.632  -167.809
21697.8     39.602  -167.763
22013.4     39.535  -167.589
22333.6     39.455  -167.237
22658.4     39.380  -166.668
22988.0     39.334  -165.907
23322.4     39.340  -165.092
23661.6     39.391  -164.369
24005.8     39.483  -163.792
24355.0     39.599  -163.461
24709.2     39.724  -163.378
25068.6     39.855  -163.547
25433.2     39.965  -163.900
25803.2     40.068  -164.407
26178.5     40.156  -164.991
26559.3     40.228  -165.584
26945.6     40.329  -166.149
27337.5     40.447  -166.853
27735.2     40.581  -167.705
28138.6     40.719  -168.750
28547.9     40.845  -169.951
28963.1     40.958  -171.193
29384.4     41.069  -172.378
29811.8     41.223  -173.461
30245.4     41.450  -174.562
30685.3     41.775  -175.847
31131.7     42.227  -177.605
31584.5     42.781   179.792
32043.9     43.407   176.031
32510.0     44.061   170.781
32982.8     44.671   163.773
33462.6     45.166   154.741
33949.3     45.400   143.608
34443.1     45.208   131.103
34944.1     44.565   118.290
35452.4     43.424   106.420
35968.0     41.756    96.838
36491.2     39.690    90.565
37022.0     37.435    87.845
37560.5     35.172    88.173
38106.8     33.133    90.432
38661.1     31.452    93.963
39223.4     30.274    96.734
39793.9     29.343    98.758
