Freq[Hz]     dBSPL  Phase[Deg]
5.00000     60.005   161.103
5.07273     60.121   160.978
5.14651     60.272   160.816
5.22137     60.475   160.604
5.29732     60.698   160.379
5.37437     60.943   160.131
5.45254     61.189   159.884
5.53185     61.435   159.635
5.61231     61.681   159.382
5.69394     61.927   159.125
5.77676     62.172   158.865
5.86079     62.418   158.601
5.94604     62.664   158.333
6.03252     62.910   158.062
6.12027     63.155   157.786
6.20929     63.401   157.506
6.29961     63.647   157.222
6.39124     63.893   156.933
6.48420     64.138   156.640
6.57851     64.384   156.342
6.67420     64.630   156.040
6.77128     64.876   155.733
6.86977     65.121   155.422
6.96969     65.367   155.105
7.07107     65.613   154.784
7.17392     65.859   154.457
7.27827     66.104   154.124
7.38413     66.350   153.787
7.49154     66.596   153.444
7.60050     66.842   153.096
7.71105     67.088   152.742
7.82321     67.333   152.383
7.93701     67.579   152.017
8.05245     67.825   151.645
8.16958     68.071   151.267
8.28841     68.316   150.883
8.40896     68.562   150.493
8.53128     68.808   150.096
8.65537     69.054   149.693
8.78126     69.299   149.283
8.90899     69.545   148.866
9.03857     69.791   148.443
9.17004     70.037   148.012
9.30342     70.282   147.576
9.43874     70.528   147.134
9.57603     70.774   146.686
9.71532     71.020   146.234
9.85663     71.265   145.780
10.0000     71.513   145.327
10.1455     71.761   144.876
10.2930     72.016   144.421
10.4427     72.275   143.944
10.5946     72.537   143.440
10.7487     72.809   142.878
10.9051     73.073   142.251
11.0637     73.333   141.590
11.2246     73.591   140.893
11.3879     73.841   140.177
11.5535     74.092   139.459
11.7216     74.344   138.724
11.8921     74.604   137.936
12.0650     74.862   137.044
12.2405     75.102   136.064
12.4186     75.320   135.047
12.5992     75.514   134.056
12.7825     75.693   133.157
12.9684     75.867   132.375
13.1570     76.046   131.702
13.3484     76.241   131.081
13.5426     76.441   130.478
13.7395     76.652   129.889
13.9394     76.877   129.271
14.1421     77.108   128.598
14.3478     77.346   127.850
14.5565     77.581   126.999
14.7683     77.802   126.063
14.9831     78.004   125.105
15.2010     78.191   124.188
15.4221     78.375   123.333
15.6464     78.557   122.544
15.8740     78.753   121.805
16.1049     78.965   121.050
16.3392     79.193   120.202
16.5768     79.418   119.207
16.8179     79.622   118.098
17.0626     79.802   116.939
17.3107     79.953   115.806
17.5625     80.078   114.816
17.8180     80.209   114.007
18.0771     80.360   113.311
18.3401     80.536   112.645
18.6068     80.735   111.918
18.8775     80.945   111.062
19.1521     81.152   110.057
19.4306     81.344   108.934
19.7133     81.518   107.749
20.0000     81.679   106.518
20.2909     81.817   105.258
20.5860     81.932   104.037
20.8855     82.036   102.863
21.1893     82.119   101.747
21.4975     82.183   100.762
21.8102     82.246    99.928
22.1274     82.313    99.217
22.4492     82.382    98.626
22.7758     82.465    98.144
23.1071     82.560    97.751
23.4432     82.676    97.439
23.7841     82.825    97.141
24.1301     83.004    96.765
24.4811     83.203    96.230
24.8372     83.402    95.500
25.1984     83.586    94.607
25.5649     83.743    93.629
25.9368     83.875    92.676
26.3141     84.008    91.770
26.6968     84.133    90.887
27.0851     84.257    90.036
27.4791     84.385    89.178
27.8788     84.504    88.319
28.2843     84.627    87.457
28.6957     84.743    86.573
29.1131     84.845    85.715
29.5365     84.947    84.902
29.9661     85.047    84.123
30.4020     85.149    83.386
30.8442     85.257    82.669
31.2929     85.371    81.931
31.7480     85.478    81.185
32.2098     85.582    80.475
32.6783     85.699    79.773
33.1536     85.812    79.074
33.6359     85.939    78.359
34.1251     86.069    77.570
34.6215     86.186    76.753
35.1250     86.312    75.912
35.6359     86.429    75.019
36.1543     86.539    74.115
36.6802     86.653    73.164
37.2137     86.743    72.190
37.7550     86.827    71.251
38.3041     86.904    70.339
38.8613     86.969    69.502
39.4265     87.048    68.731
40.0000     87.139    67.939
40.5818     87.228    67.101
41.1721     87.312    66.227
41.7710     87.386    65.330
42.3785     87.444    64.466
42.9949     87.499    63.681
43.6203     87.560    62.953
44.2548     87.631    62.242
44.8985     87.713    61.491
45.5515     87.788    60.685
46.2141     87.855    59.863
46.8863     87.918    59.034
47.5683     87.967    58.226
48.2602     88.016    57.462
48.9621     88.062    56.737
49.6743     88.111    56.048
50.3968     88.165    55.373
51.1299     88.219    54.708
51.8736     88.282    54.028
52.6281     88.343    53.292
53.3936     88.382    52.577
54.1702     88.427    51.934
54.9581     88.483    51.293
55.7575     88.534    50.642
56.5685     88.590    49.994
57.3914     88.651    49.302
58.2261     88.697    48.593
59.0730     88.741    47.915
59.9323     88.786    47.251
60.8040     88.829    46.606
61.6884     88.878    45.965
62.5857     88.928    45.300
63.4960     88.976    44.614
64.4196     89.020    43.911
65.3566     89.060    43.191
66.3073     89.091    42.460
67.2717     89.108    41.758
68.2502     89.116    41.138
69.2429     89.127    40.614
70.2501     89.148    40.171
71.2719     89.193    39.739
72.3086     89.253    39.231
73.3603     89.312    38.628
74.4274     89.369    37.929
75.5099     89.407    37.161
76.6083     89.422    36.408
77.7226     89.429    35.717
78.8531     89.429    35.090
80.0000     89.429    34.523
81.1636     89.429    34.001
82.3442     89.429    33.520
83.5419     89.429    33.081
84.7570     89.429    32.689
85.9899     89.429    32.362
87.2406     89.436    32.105
88.5096     89.453    31.919
89.7970     89.497    31.757
91.1031     89.561    31.537
92.4282     89.632    31.237
93.7726     89.716    30.837
95.1366     89.796    30.316
96.5204     89.860    29.735
97.9243     89.926    29.127
99.3486     89.989    28.462
100.794     90.045    27.737
102.260     90.091    26.969
103.747     90.126    26.168
105.256     90.145    25.357
106.787     90.151    24.572
108.340     90.148    23.827
109.916     90.134    23.134
111.515     90.114    22.513
113.137     90.094    21.961
114.783     90.074    21.474
116.452     90.060    21.045
118.146     90.054    20.646
119.865     90.054    20.259
121.608     90.060    19.878
123.377     90.074    19.486
125.171     90.094    19.056
126.992     90.114    18.582
128.839     90.134    18.062
130.713     90.148    17.495
132.615     90.151    16.907
134.543     90.148    16.314
136.500     90.135    15.725
138.486     90.112    15.169
140.500     90.083    14.653
142.544     90.042    14.209
144.617     90.002    13.871
146.721     89.975    13.594
148.855     89.952    13.352
151.020     89.943    13.130
153.217     89.945    12.874
155.445     89.946    12.581
157.706     89.948    12.263
160.000     89.946    11.929
162.327     89.942    11.590
164.688     89.932    11.264
167.084     89.923    10.968
169.514     89.914    10.693
171.980     89.909    10.446
174.481     89.914    10.196
177.019     89.923     9.914
179.594     89.932     9.604
182.206     89.942     9.257
184.856     89.946     8.888
187.545     89.948     8.513
190.273     89.947     8.129
193.041     89.945     7.739
195.849     89.940     7.341
198.697     89.931     6.936
201.587     89.922     6.516
204.520     89.908     6.067
207.494     89.879     5.617
210.512     89.839     5.207
213.574     89.787     4.871
216.681     89.728     4.665
219.833     89.692     4.548
223.030     89.671     4.419
226.274     89.658     4.233
229.565     89.638     3.988
232.905     89.601     3.746
236.292     89.551     3.580
239.729     89.496     3.534
243.216     89.453     3.607
246.754     89.436     3.718
250.343     89.429     3.806
253.984     89.429     3.870
257.678     89.429     3.922
261.426     89.429     3.998
265.229     89.434     4.123
269.087     89.453     4.301
273.001     89.500     4.491
276.972     89.582     4.576
281.000     89.679     4.468
285.088     89.774     4.149
289.234     89.851     3.645
293.441     89.898     3.048
297.709     89.921     2.452
302.040     89.928     1.906
306.433     89.934     1.407
310.890     89.943     0.907
315.412     89.945     0.392
320.000     89.943    -0.142
324.655     89.931    -0.693
329.377     89.909    -1.240
334.168     89.875    -1.765
339.028     89.832    -2.248
343.959     89.783    -2.689
348.962     89.724    -3.078
354.038     89.655    -3.374
359.188     89.588    -3.570
364.412     89.526    -3.679
369.713     89.475    -3.724
375.090     89.438    -3.754
380.546     89.408    -3.824
386.081     89.363    -3.899
391.697     89.304    -3.872
397.394     89.246    -3.687
403.175     89.198    -3.307
409.039     89.194    -2.756
414.989     89.259    -2.207
421.025     89.385    -1.878
427.149     89.542    -1.913
433.362     89.695    -2.347
439.665     89.822    -3.135
446.060     89.901    -4.169
452.548     89.930    -5.304
459.131     89.924    -6.478
465.809     89.871    -7.652
472.584     89.770    -8.731
479.458     89.619    -9.584
486.432     89.440   -10.089
493.507     89.270   -10.255
500.686     89.120   -10.153
507.968     89.019    -9.901
515.357     88.970    -9.733
522.853     88.910    -9.685
530.458     88.848    -9.656
538.174     88.781    -9.646
546.002     88.686    -9.557
553.943     88.600    -9.331
562.001     88.520    -9.009
570.175     88.445    -8.572
578.469     88.395    -8.046
586.883     88.359    -7.462
595.419     88.354    -6.853
604.080     88.376    -6.305
612.866     88.411    -5.857
621.780     88.452    -5.497
630.824     88.495    -5.213
640.000     88.529    -4.939
649.309     88.582    -4.669
658.753     88.645    -4.473
668.335     88.713    -4.361
678.056     88.789    -4.361
687.919     88.858    -4.490
697.925     88.915    -4.727
708.077     88.950    -5.039
718.376     88.956    -5.350
728.825     88.937    -5.564
739.426     88.906    -5.625
750.181     88.882    -5.546
761.093     88.866    -5.357
772.163     88.871    -5.110
783.394     88.888    -4.879
794.789     88.893    -4.608
806.349     88.906    -4.212
818.078     88.942    -3.709
829.977     89.008    -3.137
842.050     89.122    -2.572
854.298     89.291    -2.188
866.724     89.482    -2.117
879.330     89.673    -2.372
892.120     89.847    -2.956
905.097     89.967    -3.773
918.262     90.031    -4.633
931.618     90.049    -5.389
945.169     90.036    -5.933
958.917     90.016    -6.217
972.864     90.015    -6.285
987.015     90.045    -6.233
1001.37     90.108    -6.177
1015.94     90.193    -6.215
1030.71     90.270    -6.336
1045.71     90.336    -6.435
1060.92     90.403    -6.423
1076.35     90.494    -6.263
1092.00     90.652    -6.087
1107.89     90.868    -6.146
1124.00     91.101    -6.571
1140.35     91.331    -7.407
1156.94     91.509    -8.561
1173.77     91.633    -9.800
1190.84     91.736   -11.025
1208.16     91.818   -12.234
1225.73     91.891   -13.435
1243.56     91.957   -14.687
1261.65     91.993   -15.978
1280.00     92.002   -17.240
1298.62     91.981   -18.401
1317.51     91.943   -19.398
1336.67     91.903   -20.231
1356.11     91.863   -20.917
1375.84     91.835   -21.470
1395.85     91.825   -21.948
1416.15     91.824   -22.386
1436.75     91.837   -22.793
1457.65     91.860   -23.190
1478.85     91.894   -23.592
1500.36     91.934   -24.012
1522.19     91.975   -24.437
1544.33     92.015   -24.834
1566.79     92.067   -25.198
1589.58     92.125   -25.541
1612.70     92.196   -25.874
1636.16     92.275   -26.227
1659.95     92.350   -26.568
1684.10     92.426   -26.823
1708.60     92.519   -26.972
1733.45     92.638   -27.045
1758.66     92.785   -27.072
1784.24     92.963   -27.057
1810.19     93.189   -27.065
1836.52     93.444   -27.117
1863.24     93.748   -27.197
1890.34     94.109   -27.373
1917.83     94.538   -27.720
1945.73     95.036   -28.278
1974.03     95.655   -29.254
2002.74     96.358   -31.006
2031.87     97.070   -33.661
2061.43     97.789   -37.299
2091.41     98.471   -42.075
2121.83     99.046   -47.868
2152.69     99.512   -54.499
2184.01     99.840   -61.904
2215.77     99.978   -69.864
2248.00     99.905   -77.974
2280.70     99.641   -85.842
2313.87     99.212   -93.194
2347.53     98.672   -99.979
2381.68     98.028  -106.176
2416.32     97.326  -111.841
2451.46     96.509  -116.902
2487.12     95.556  -120.904
2523.30     94.558  -123.682
2560.00     93.517  -125.225
2597.24     92.524  -125.543
2635.01     91.718  -125.068
2673.34     91.041  -124.197
2712.23     90.546  -123.217
2751.68     90.155  -122.382
2791.70     89.861  -121.783
2832.31     89.630  -121.508
2873.50     89.437  -121.576
2915.30     89.258  -121.958
2957.70     89.085  -122.613
3000.72     88.912  -123.530
3044.37     88.720  -124.666
3088.65     88.508  -125.965
3133.58     88.271  -127.398
3179.16     87.993  -128.878
3225.40     87.685  -130.316
3272.31     87.351  -131.674
3319.91     86.992  -132.911
3368.20     86.617  -133.982
3417.19     86.247  -134.919
3466.89     85.876  -135.774
3517.32     85.498  -136.536
3568.48     85.125  -137.220
3620.39     84.740  -137.823
3673.05     84.343  -138.281
3726.47     83.947  -138.567
3780.67     83.550  -138.662
3835.67     83.173  -138.572
3891.46     82.825  -138.385
3948.06     82.504  -138.186
4005.49     82.198  -138.014
4063.75     81.894  -137.859
4122.86     81.576  -137.646
4182.82     81.247  -137.256
4243.66     80.929  -136.635
4305.39     80.645  -135.821
4368.01     80.413  -134.924
4431.55     80.236  -134.087
4496.01     80.098  -133.431
4561.40     79.976  -133.011
4627.75     79.835  -132.753
4695.06     79.672  -132.504
4763.35     79.504  -132.183
4832.64     79.341  -131.790
4902.93     79.192  -131.352
4974.24     79.066  -130.947
5046.60     78.936  -130.618
5120.00     78.771  -130.218
5194.47     78.585  -129.544
5270.03     78.401  -128.476
5346.68     78.249  -126.926
5424.45     78.197  -124.943
5503.35     78.291  -122.802
5583.40     78.532  -120.845
5664.61     78.884  -119.303
5747.01     79.320  -118.304
5830.60     79.814  -117.844
5915.41     80.376  -117.849
6001.45     81.082  -118.574
6088.74     81.831  -120.233
6177.30     82.676  -123.078
6267.15     83.551  -127.804
6358.31     84.222  -134.485
6450.80     84.616  -142.516
6544.62     84.708  -151.265
6639.82     84.451  -159.823
6736.40     83.915  -167.279
6834.38     83.215  -173.176
6933.79     82.516  -177.538
7034.64     81.960   179.099
7136.96     81.625   175.883
7240.77     81.490   171.926
7346.09     81.465   166.477
7452.94     81.378   159.125
7561.35     81.018   150.263
7671.33     80.286   140.945
7782.91     79.145   132.324
7896.12     77.593   125.435
8010.97     75.728   120.976
8127.49     73.713   119.148
8245.71     71.646   119.896
8365.65     69.658   123.055
8487.33     67.847   128.214
8610.78     66.302   134.831
8736.03     65.086   142.437
8863.09     64.235   150.622
8992.01     63.726   159.117
9122.80     63.616   167.604
9255.50     63.947   175.435
9390.12     64.681  -178.175
9526.70     65.688  -174.033
9665.27     66.783  -172.791
9805.86     67.738  -174.456
9948.49     68.454  -178.497
10093.2     68.873   175.793
10240.0     68.964   169.237
10388.9     68.724   162.719
10540.1     68.228   156.911
10693.4     67.523   152.196
10848.9     66.702   148.756
11006.7     65.868   146.430
11166.8     65.095   144.827
11329.2     64.391   143.564
11494.0     63.763   142.321
11661.2     63.149   140.905
11830.8     62.512   139.320
12002.9     61.792   137.767
12177.5     60.999   136.491
12354.6     60.129   135.651
12534.3     59.218   135.275
12716.6     58.255   135.397
12901.6     57.235   136.286
13089.2     56.183   138.251
13279.6     55.124   141.482
13472.8     54.141   145.937
13668.8     53.373   151.254
13867.6     52.902   156.766
14069.3     52.701   161.813
14273.9     52.661   166.097
14481.5     52.724   169.576
14692.2     52.819   172.453
14905.9     53.073   174.554
15122.7     53.377   175.368
15342.7     53.610   174.960
15565.8     53.790   173.350
15792.2     53.778   170.667
16021.9     53.520   167.616
16255.0     53.085   164.704
16491.4     52.461   162.250
16731.3     51.707   160.537
16974.7     50.832   159.745
17221.6     49.851   160.142
17472.1     48.819   161.964
17726.2     47.839   165.203
17984.0     47.010   169.545
18245.6     46.408   174.528
18511.0     46.086   179.527
18780.2     46.004  -176.126
19053.4     46.052  -172.820
19330.5     46.142  -170.704
19611.7     46.159  -169.686
19897.0     46.006  -169.244
20186.4     45.692  -168.743
20480.0     45.225  -167.651
20777.9     44.646  -165.434
21080.1     44.112  -161.949
21386.7     43.742  -157.577
21697.8     43.605  -152.903
22013.4     43.708  -148.614
22333.6     43.945  -145.198
22658.4     44.224  -142.803
22988.0     44.449  -141.260
23322.4     44.596  -140.216
23661.6     44.654  -139.315
24005.8     44.632  -138.171
24355.0     44.606  -136.548
24709.2     44.645  -134.492
25068.6     44.806  -132.217
25433.2     45.136  -130.137
25803.2     45.609  -128.796
26178.5     46.127  -128.538
26559.3     46.608  -129.362
26945.6     47.005  -131.069
27337.5     47.295  -133.358
27735.2     47.489  -135.956
28138.6     47.607  -138.725
28547.9     47.655  -141.594
28963.1     47.649  -144.530
29384.4     47.595  -147.560
29811.8     47.475  -150.639
30245.4     47.307  -153.694
30685.3     47.115  -156.786
31131.7     46.901  -160.092
31584.5     46.642  -163.745
32043.9     46.315  -167.870
32510.0     45.813  -172.237
32982.8     45.127  -176.363
33462.6     44.213  -179.743
33949.3     43.078   178.306
34443.1     41.859   178.061
34944.1     40.638   179.444
35452.4     39.475  -177.607
35968.0     38.560  -173.560
36491.2     37.856  -169.021
37022.0     37.427  -164.492
37560.5     37.200  -160.484
38106.8     37.099  -157.415
38661.1     37.046  -155.174
39223.4     37.012  -153.777
39793.9     36.969  -152.854
