Freq[Hz]     dBSPL  Phase[Deg]
5.00000     17.772   -52.094
5.07273     18.251   -52.057
5.14651     18.730   -52.030
5.22137     19.210   -52.012
5.29732     19.691   -52.003
5.37437     20.172   -52.004
5.45254     20.653   -52.014
5.53185     21.135   -52.035
5.61231     21.617   -52.064
5.69394     22.100   -52.104
5.77676     22.583   -52.153
5.86079     23.066   -52.213
5.94604     23.550   -52.282
6.03252     24.033   -52.362
6.12027     24.518   -52.452
6.20929     25.002   -52.552
6.29961     25.487   -52.663
6.39124     25.972   -52.784
6.48420     26.457   -52.916
6.57851     26.943   -53.058
6.67420     27.429   -53.211
6.77128     27.915   -53.375
6.86977     28.401   -53.550
6.96969     28.887   -53.736
7.07107     29.374   -53.934
7.17392     29.861   -54.142
7.27827     30.347   -54.362
7.38413     30.834   -54.594
7.49154     31.321   -54.836
7.60050     31.808   -55.091
7.71105     32.296   -55.358
7.82321     32.783   -55.636
7.93701     33.270   -55.926
8.05245     33.757   -56.229
8.16958     34.245   -56.543
8.28841     34.732   -56.871
8.40896     35.219   -57.210
8.53128     35.706   -57.562
8.65537     36.193   -57.927
8.78126     36.680   -58.305
8.90899     37.167   -58.696
9.03857     37.654   -59.100
9.17004     38.140   -59.517
9.30342     38.627   -59.947
9.43874     39.113   -60.391
9.57603     39.599   -60.848
9.71532     40.084   -61.319
9.85663     40.570   -61.804
10.0000     41.054   -62.303
10.1455     41.539   -62.817
10.2930     42.023   -63.344
10.4427     42.507   -63.885
10.5946     42.990   -64.442
10.7487     43.473   -65.012
10.9051     43.955   -65.598
11.0637     44.437   -66.198
11.2246     44.918   -66.813
11.3879     45.399   -67.444
11.5535     45.879   -68.089
11.7216     46.358   -68.750
11.8921     46.836   -69.426
12.0650     47.314   -70.117
12.2405     47.791   -70.824
12.4186     48.267   -71.547
12.5992     48.742   -72.285
12.7825     49.216   -73.039
12.9684     49.689   -73.808
13.1570     50.161   -74.594
13.3484     50.632   -75.395
13.5426     51.101   -76.213
13.7395     51.570   -77.046
13.9394     52.037   -77.895
14.1421     52.503   -78.760
14.3478     52.967   -79.641
14.5565     53.431   -80.537
14.7683     53.892   -81.449
14.9831     54.352   -82.377
15.2010     54.811   -83.321
15.4221     55.268   -84.280
15.6464     55.723   -85.254
15.8740     56.177   -86.244
16.1049     56.628   -87.248
16.3392     57.078   -88.268
16.5768     57.526   -89.302
16.8179     57.972   -90.351
17.0626     58.417   -91.414
17.3107     58.859   -92.491
17.5625     59.299   -93.582
17.8180     59.737   -94.686
18.0771     60.172   -95.803
18.3401     60.606   -96.934
18.6068     61.037   -98.076
18.8775     61.467   -99.232
19.1521     61.894  -100.399
19.4306     62.318  -101.577
19.7133     62.741  -102.767
20.0000     63.161  -103.968
20.2909     63.578  -105.179
20.5860     63.994  -106.400
20.8855     64.407  -107.631
21.1893     64.818  -108.871
21.4975     65.226  -110.121
21.8102     65.633  -111.379
22.1274     66.037  -112.645
22.4492     66.438  -113.919
22.7758     66.838  -115.200
23.1071     67.235  -116.489
23.4432     67.630  -117.785
23.7841     68.023  -119.088
24.1301     68.414  -120.397
24.4811     68.804  -121.712
24.8372     69.191  -123.034
25.1984     69.576  -124.361
25.5649     69.959  -125.694
25.9368     70.341  -127.033
26.3141     70.721  -128.377
26.6968     71.100  -129.727
27.0851     71.477  -131.083
27.4791     71.852  -132.444
27.8788     72.227  -133.812
28.2843     72.600  -135.185
28.6957     72.972  -136.565
29.1131     73.342  -137.952
29.5365     73.712  -139.346
29.9661     74.081  -140.747
30.4020     74.449  -142.156
30.8442     74.817  -143.574
31.2929     75.184  -145.001
31.7480     75.550  -146.438
32.2098     75.916  -147.885
32.6783     76.282  -149.345
33.1536     76.647  -150.816
33.6359     77.012  -152.302
34.1251     77.377  -153.802
34.6215     77.742  -155.318
35.1250     78.107  -156.851
35.6359     78.472  -158.404
36.1543     78.838  -159.976
36.6802     79.203  -161.570
37.2137     79.568  -163.189
37.7550     79.934  -164.832
38.3041     80.299  -166.503
38.8613     80.665  -168.204
39.4265     81.030  -169.937
40.0000     81.396  -171.705
40.5818     81.761  -173.509
41.1721     82.126  -175.352
41.7710     82.490  -177.237
42.3785     82.854  -179.167
42.9949     83.216   178.855
43.6203     83.576   176.827
44.2548     83.935   174.746
44.8985     84.292   172.608
45.5515     84.645   170.412
46.2141     84.995   168.154
46.8863     85.341   165.832
47.5683     85.682   163.444
48.2602     86.017   160.988
48.9621     86.345   158.463
49.6743     86.665   155.868
50.3968     86.977   153.203
51.1299     87.279   150.470
51.8736     87.569   147.668
52.6281     87.847   144.803
53.3936     88.112   141.877
54.1702     88.361   138.895
54.9581     88.595   135.864
55.7575     88.812   132.792
56.5685     89.011   129.686
57.3914     89.192   126.557
58.2261     89.354   123.415
59.0730     89.497   120.269
59.9323     89.620   117.133
60.8040     89.724   114.015
61.6884     89.809   110.927
62.5857     89.876   107.880
63.4960     89.925   104.882
64.4196     89.958   101.941
65.3566     89.975    99.066
66.3073     89.978    96.262
67.2717     89.968    93.534
68.2502     89.946    90.886
69.2429     89.914    88.321
70.2501     89.872    85.840
71.2719     89.822    83.443
72.3086     89.764    81.131
73.3603     89.701    78.903
74.4274     89.632    76.757
75.5099     89.559    74.693
76.6083     89.483    72.706
77.7226     89.404    70.796
78.8531     89.323    68.959
80.0000     89.240    67.193
81.1636     89.156    65.494
82.3442     89.072    63.861
83.5419     88.987    62.289
84.7570     88.903    60.777
85.9899     88.819    59.321
87.2406     88.735    57.919
88.5096     88.653    56.569
89.7970     88.571    55.267
91.1031     88.491    54.011
92.4282     88.412    52.800
93.7726     88.334    51.630
95.1366     88.258    50.501
96.5204     88.183    49.409
97.9243     88.110    48.354
99.3486     88.038    47.333
100.794     87.968    46.345
102.260     87.900    45.388
103.747     87.833    44.461
105.256     87.768    43.562
106.787     87.705    42.691
108.340     87.643    41.845
109.916     87.583    41.024
111.515     87.524    40.226
113.137     87.467    39.452
114.783     87.412    38.698
116.452     87.358    37.966
118.146     87.306    37.253
119.865     87.255    36.560
121.608     87.205    35.884
123.377     87.157    35.226
125.171     87.110    34.585
126.992     87.065    33.961
128.839     87.020    33.351
130.713     86.977    32.757
132.615     86.936    32.177
134.543     86.895    31.611
136.500     86.856    31.058
138.486     86.818    30.518
140.500     86.780    29.991
142.544     86.744    29.475
144.617     86.709    28.972
146.721     86.675    28.479
148.855     86.642    27.997
151.020     86.610    27.526
153.217     86.579    27.065
155.445     86.549    26.614
157.706     86.520    26.172
160.000     86.491    25.739
162.327     86.464    25.316
164.688     86.437    24.901
167.084     86.411    24.495
169.514     86.386    24.096
171.980     86.361    23.706
174.481     86.337    23.323
177.019     86.314    22.948
179.594     86.292    22.580
182.206     86.270    22.219
184.856     86.249    21.866
187.545     86.228    21.518
190.273     86.208    21.178
193.041     86.189    20.843
195.849     86.170    20.515
198.697     86.152    20.193
201.587     86.134    19.877
204.520     86.117    19.567
207.494     86.100    19.262
210.512     86.084    18.963
213.574     86.068    18.669
216.681     86.053    18.380
219.833     86.038    18.097
223.030     86.024    17.818
226.274     86.010    17.544
229.565     85.996    17.275
232.905     85.983    17.011
236.292     85.970    16.751
239.729     85.958    16.496
243.216     85.946    16.245
246.754     85.934    15.998
250.343     85.923    15.755
253.984     85.912    15.517
257.678     85.901    15.282
261.426     85.890    15.051
265.229     85.880    14.825
269.087     85.870    14.601
273.001     85.861    14.382
276.972     85.852    14.166
281.000     85.843    13.954
285.088     85.834    13.745
289.234     85.825    13.539
293.441     85.817    13.337
297.709     85.809    13.138
302.040     85.801    12.943
306.433     85.794    12.750
310.890     85.786    12.560
315.412     85.779    12.374
320.000     85.772    12.190
324.655     85.766    12.010
329.377     85.759    11.832
334.168     85.753    11.657
339.028     85.747    11.485
343.959     85.741    11.315
348.962     85.735    11.148
354.038     85.729    10.984
359.188     85.724    10.822
364.412     85.718    10.663
369.713     85.713    10.506
375.090     85.708    10.351
380.546     85.703    10.199
386.081     85.699    10.050
391.697     85.694     9.902
397.394     85.690     9.757
403.175     85.685     9.614
409.039     85.681     9.474
414.989     85.677     9.335
421.025     85.673     9.199
427.149     85.669     9.064
433.362     85.665     8.932
439.665     85.662     8.801
446.060     85.658     8.673
452.548     85.655     8.547
459.131     85.651     8.422
465.809     85.648     8.299
472.584     85.645     8.178
479.458     85.642     8.059
486.432     85.639     7.942
493.507     85.636     7.827
500.686     85.633     7.713
507.968     85.630     7.601
515.357     85.628     7.490
522.853     85.625     7.382
530.458     85.623     7.274
538.174     85.620     7.169
546.002     85.618     7.065
553.943     85.616     6.963
562.001     85.613     6.862
570.175     85.611     6.762
578.469     85.609     6.664
586.883     85.607     6.568
595.419     85.605     6.473
604.080     85.603     6.379
612.866     85.601     6.287
621.780     85.600     6.196
630.824     85.598     6.106
640.000     85.596     6.018
649.309     85.594     5.931
658.753     85.593     5.845
668.335     85.591     5.761
678.056     85.590     5.677
687.919     85.588     5.595
697.925     85.587     5.515
708.077     85.585     5.435
718.376     85.584     5.357
728.825     85.583     5.279
739.426     85.581     5.203
750.181     85.580     5.128
761.093     85.579     5.054
772.163     85.578     4.981
783.394     85.577     4.909
794.789     85.576     4.839
806.349     85.574     4.769
818.078     85.573     4.700
829.977     85.572     4.632
842.050     85.571     4.566
854.298     85.570     4.500
866.724     85.569     4.435
879.330     85.569     4.371
892.120     85.568     4.308
905.097     85.567     4.246
918.262     85.566     4.185
931.618     85.565     4.125
945.169     85.564     4.066
958.917     85.564     4.007
972.864     85.563     3.949
987.015     85.562     3.893
1001.37     85.562     3.837
1015.94     85.561     3.781
1030.71     85.560     3.727
1045.71     85.560     3.673
1060.92     85.559     3.621
1076.35     85.558     3.569
1092.00     85.558     3.517
1107.89     85.557     3.467
1124.00     85.557     3.417
1140.35     85.556     3.368
1156.94     85.556     3.319
1173.77     85.555     3.272
1190.84     85.555     3.225
1208.16     85.554     3.178
1225.73     85.554     3.133
1243.56     85.553     3.088
1261.65     85.553     3.043
1280.00     85.552     2.999
1298.62     85.552     2.956
1317.51     85.551     2.914
1336.67     85.551     2.872
1356.11     85.551     2.831
1375.84     85.550     2.790
1395.85     85.550     2.750
1416.15     85.550     2.711
1436.75     85.549     2.672
1457.65     85.549     2.633
1478.85     85.549     2.595
1500.36     85.548     2.558
1522.19     85.548     2.521
1544.33     85.548     2.485
1566.79     85.547     2.450
1589.58     85.547     2.414
1612.70     85.547     2.380
1636.16     85.547     2.346
1659.95     85.546     2.312
1684.10     85.546     2.279
1708.60     85.546     2.246
1733.45     85.546     2.214
1758.66     85.545     2.182
1784.24     85.545     2.151
1810.19     85.545     2.120
1836.52     85.545     2.089
1863.24     85.545     2.059
1890.34     85.544     2.030
1917.83     85.544     2.001
1945.73     85.544     1.972
1974.03     85.544     1.944
2002.74     85.544     1.916
2031.87     85.543     1.888
2061.43     85.543     1.861
2091.41     85.543     1.835
2121.83     85.543     1.808
2152.69     85.543     1.782
2184.01     85.543     1.757
2215.77     85.543     1.732
2248.00     85.542     1.707
2280.70     85.542     1.682
2313.87     85.542     1.658
2347.53     85.542     1.634
2381.68     85.542     1.611
2416.32     85.542     1.588
2451.46     85.542     1.565
2487.12     85.542     1.542
2523.30     85.541     1.520
2560.00     85.541     1.499
2597.24     85.541     1.477
2635.01     85.541     1.456
2673.34     85.541     1.435
2712.23     85.541     1.414
2751.68     85.541     1.394
2791.70     85.541     1.374
2832.31     85.541     1.354
2873.50     85.541     1.335
2915.30     85.540     1.316
2957.70     85.540     1.297
3000.72     85.540     1.278
3044.37     85.540     1.260
3088.65     85.540     1.242
3133.58     85.540     1.224
3179.16     85.540     1.207
3225.40     85.540     1.189
3272.31     85.540     1.172
3319.91     85.540     1.155
3368.20     85.540     1.139
3417.19     85.540     1.123
3466.89     85.540     1.106
3517.32     85.540     1.091
3568.48     85.540     1.075
3620.39     85.539     1.060
3673.05     85.539     1.044
3726.47     85.539     1.029
3780.67     85.539     1.015
3835.67     85.539     1.000
3891.46     85.539     0.986
3948.06     85.539     0.972
4005.49     85.539     0.958
4063.75     85.539     0.944
4122.86     85.539     0.930
4182.82     85.539     0.917
4243.66     85.539     0.904
4305.39     85.539     0.891
4368.01     85.539     0.878
4431.55     85.539     0.866
4496.01     85.539     0.853
4561.40     85.539     0.841
4627.75     85.539     0.829
4695.06     85.539     0.817
4763.35     85.539     0.805
4832.64     85.539     0.794
4902.93     85.539     0.782
4974.24     85.539     0.771
5046.60     85.539     0.760
5120.00     85.539     0.749
5194.47     85.539     0.738
5270.03     85.539     0.728
5346.68     85.538     0.717
5424.45     85.538     0.707
5503.35     85.538     0.697
5583.40     85.538     0.687
5664.61     85.538     0.677
5747.01     85.538     0.667
5830.60     85.538     0.658
5915.41     85.538     0.648
6001.45     85.538     0.639
6088.74     85.538     0.630
6177.30     85.538     0.621
6267.15     85.538     0.612
6358.31     85.538     0.603
6450.80     85.538     0.595
6544.62     85.538     0.586
6639.82     85.538     0.578
6736.40     85.538     0.569
6834.38     85.538     0.561
6933.79     85.538     0.553
7034.64     85.538     0.545
7136.96     85.538     0.537
7240.77     85.538     0.530
7346.09     85.538     0.522
7452.94     85.538     0.515
7561.35     85.538     0.507
7671.33     85.538     0.500
7782.91     85.538     0.493
7896.12     85.538     0.486
8010.97     85.538     0.479
8127.49     85.538     0.472
8245.71     85.538     0.465
8365.65     85.538     0.458
8487.33     85.538     0.452
8610.78     85.538     0.445
8736.03     85.538     0.439
8863.09     85.538     0.433
8992.01     85.538     0.427
9122.80     85.538     0.420
9255.50     85.538     0.414
9390.12     85.538     0.408
9526.70     85.538     0.403
9665.27     85.538     0.397
9805.86     85.538     0.391
9948.49     85.538     0.386
10093.2     85.538     0.380
10240.0     85.538     0.375
10388.9     85.538     0.369
10540.1     85.538     0.364
10693.4     85.538     0.359
10848.9     85.538     0.354
11006.7     85.538     0.348
11166.8     85.538     0.343
11329.2     85.538     0.339
11494.0     85.538     0.334
11661.2     85.538     0.329
11830.8     85.538     0.324
12002.9     85.538     0.320
12177.5     85.538     0.315
12354.6     85.538     0.310
12534.3     85.538     0.306
12716.6     85.538     0.302
12901.6     85.538     0.297
13089.2     85.538     0.293
13279.6     85.538     0.289
13472.8     85.538     0.285
13668.8     85.538     0.281
13867.6     85.538     0.277
14069.3     85.538     0.273
14273.9     85.538     0.269
14481.5     85.538     0.265
14692.2     85.538     0.261
14905.9     85.538     0.257
15122.7     85.538     0.254
15342.7     85.538     0.250
15565.8     85.538     0.246
15792.2     85.538     0.243
16021.9     85.538     0.239
16255.0     85.538     0.236
16491.4     85.538     0.233
16731.3     85.538     0.229
16974.7     85.538     0.226
17221.6     85.538     0.223
17472.1     85.538     0.220
17726.2     85.538     0.216
17984.0     85.538     0.213
18245.6     85.538     0.210
18511.0     85.538     0.207
18780.2     85.538     0.204
19053.4     85.538     0.201
19330.5     85.538     0.198
19611.7     85.538     0.196
19897.0     85.538     0.193
20186.4     85.538     0.190
20480.0     85.538     0.187
20777.9     85.538     0.185
21080.1     85.538     0.182
21386.7     85.538     0.179
21697.8     85.538     0.177
22013.4     85.538     0.174
22333.6     85.538     0.172
22658.4     85.538     0.169
22988.0     85.538     0.167
23322.4     85.538     0.164
23661.6     85.538     0.162
24005.8     85.538     0.160
24355.0     85.538     0.157
24709.2     85.538     0.155
25068.6     85.538     0.153
25433.2     85.538     0.151
25803.2     85.538     0.149
26178.5     85.538     0.147
26559.3     85.538     0.144
26945.6     85.538     0.142
27337.5     85.538     0.140
27735.2     85.538     0.138
28138.6     85.538     0.136
28547.9     85.538     0.134
28963.1     85.538     0.132
29384.4     85.538     0.131
29811.8     85.538     0.129
30245.4     85.538     0.127
30685.3     85.538     0.125
31131.7     85.538     0.123
31584.5     85.538     0.121
32043.9     85.538     0.120
32510.0     85.538     0.118
32982.8     85.538     0.116
33462.6     85.538     0.115
33949.3     85.538     0.113
34443.1     85.538     0.111
34944.1     85.538     0.110
35452.4     85.538     0.108
35968.0     85.538     0.107
36491.2     85.538     0.105
37022.0     85.538     0.104
37560.5     85.538     0.102
38106.8     85.538     0.101
38661.1     85.538     0.099
39223.4     85.538     0.098
39793.9     85.538     0.096
