Freq[Hz]  Imp[Ohm]  Phase[Deg]
5.00000      0.184     0.315
5.07273      0.184     0.317
5.14651      0.184     0.319
5.22137      0.184     0.323
5.29732      0.184     0.327
5.37437      0.184     0.332
5.45254      0.184     0.336
5.53185      0.184     0.341
5.61231      0.184     0.346
5.69394      0.184     0.351
5.77676      0.184     0.356
5.86079      0.184     0.361
5.94604      0.184     0.366
6.03252      0.184     0.371
6.12027      0.184     0.376
6.20929      0.184     0.381
6.29961      0.184     0.387
6.39124      0.184     0.392
6.48420      0.184     0.398
6.57851      0.184     0.403
6.67420      0.184     0.409
6.77128      0.184     0.415
6.86977      0.184     0.421
6.96969      0.184     0.427
7.07107      0.184     0.433
7.17392      0.185     0.439
7.27827      0.185     0.445
7.38413      0.185     0.451
7.49154      0.185     0.458
7.60050      0.185     0.464
7.71105      0.185     0.471
7.82321      0.185     0.478
7.93701      0.185     0.484
8.05245      0.185     0.491
8.16958      0.185     0.498
8.28841      0.185     0.505
8.40896      0.185     0.512
8.53128      0.185     0.520
8.65537      0.185     0.527
8.78126      0.185     0.535
8.90899      0.185     0.542
9.03857      0.185     0.550
9.17004      0.185     0.558
9.30342      0.185     0.566
9.43874      0.185     0.574
9.57603      0.185     0.582
9.71532      0.185     0.590
9.85663      0.185     0.599
10.0000      0.185     0.607
10.1455      0.185     0.616
10.2930      0.185     0.625
10.4427      0.185     0.634
10.5946      0.185     0.643
10.7487      0.185     0.652
10.9051      0.185     0.661
11.0637      0.185     0.671
11.2246      0.185     0.680
11.3879      0.185     0.690
11.5535      0.185     0.700
11.7216      0.185     0.710
11.8921      0.185     0.720
12.0650      0.185     0.730
12.2405      0.185     0.741
12.4186      0.185     0.751
12.5992      0.185     0.762
12.7825      0.185     0.773
12.9684      0.185     0.784
13.1570      0.185     0.795
13.3484      0.185     0.807
13.5426      0.185     0.818
13.7395      0.185     0.830
13.9394      0.185     0.842
14.1421      0.185     0.854
14.3478      0.185     0.866
14.5565      0.185     0.879
14.7683      0.185     0.891
14.9831      0.185     0.904
15.2010      0.185     0.917
15.4221      0.185     0.930
15.6464      0.185     0.944
15.8740      0.185     0.957
16.1049      0.185     0.971
16.3392      0.185     0.985
16.5768      0.185     0.999
16.8179      0.185     1.014
17.0626      0.185     1.028
17.3107      0.185     1.043
17.5625      0.185     1.058
17.8180      0.185     1.073
18.0771      0.185     1.089
18.3401      0.185     1.105
18.6068      0.185     1.120
18.8775      0.185     1.137
19.1521      0.185     1.153
19.4306      0.185     1.170
19.7133      0.185     1.186
20.0000      0.185     1.203
20.2909      0.185     1.221
20.5860      0.185     1.238
20.8855      0.185     1.256
21.1893      0.185     1.274
21.4975      0.185     1.293
21.8102      0.185     1.311
22.1274      0.185     1.330
22.4492      0.185     1.349
22.7758      0.185     1.368
23.1071      0.185     1.388
23.4432      0.185     1.408
23.7841      0.185     1.428
24.1301      0.185     1.449
24.4811      0.185     1.469
24.8372      0.185     1.490
25.1984      0.185     1.512
25.5649      0.185     1.533
25.9368      0.185     1.555
26.3141      0.185     1.578
26.6968      0.185     1.600
27.0851      0.185     1.623
27.4791      0.185     1.646
27.8788      0.185     1.670
28.2843      0.185     1.694
28.6957      0.185     1.718
29.1131      0.185     1.742
29.5365      0.185     1.767
29.9661      0.185     1.792
30.4020      0.185     1.818
30.8442      0.185     1.844
31.2929      0.185     1.870
31.7480      0.185     1.897
32.2098      0.185     1.924
32.6783      0.185     1.951
33.1536      0.185     1.979
33.6359      0.185     2.007
34.1251      0.185     2.036
34.6215      0.185     2.065
35.1250      0.185     2.094
35.6359      0.185     2.124
36.1543      0.185     2.154
36.6802      0.185     2.185
37.2137      0.185     2.215
37.7550      0.185     2.247
38.3041      0.185     2.279
38.8613      0.185     2.311
39.4265      0.185     2.344
40.0000      0.185     2.377
40.5818      0.185     2.411
41.1721      0.185     2.445
41.7710      0.185     2.479
42.3785      0.185     2.514
42.9949      0.185     2.550
43.6203      0.185     2.586
44.2548      0.185     2.622
44.8985      0.185     2.659
45.5515      0.185     2.696
46.2141      0.185     2.734
46.8863      0.185     2.773
47.5683      0.185     2.812
48.2602      0.186     2.851
48.9621      0.186     2.891
49.6743      0.186     2.932
50.3968      0.186     2.973
51.1299      0.186     3.015
51.8736      0.186     3.057
52.6281      0.186     3.100
53.3936      0.186     3.143
54.1702      0.186     3.187
54.9581      0.186     3.232
55.7575      0.186     3.277
56.5685      0.186     3.322
57.3914      0.186     3.369
58.2261      0.186     3.416
59.0730      0.186     3.463
59.9323      0.186     3.511
60.8040      0.186     3.560
61.6884      0.186     3.610
62.5857      0.186     3.660
63.4960      0.186     3.710
64.4196      0.186     3.762
65.3566      0.186     3.814
66.3073      0.186     3.867
67.2717      0.186     3.920
68.2502      0.186     3.974
69.2429      0.186     4.029
70.2501      0.187     4.084
71.2719      0.187     4.141
72.3086      0.187     4.198
73.3603      0.187     4.255
74.4274      0.187     4.314
75.5099      0.187     4.373
76.6083      0.187     4.433
77.7226      0.187     4.493
78.8531      0.187     4.554
80.0000      0.187     4.617
81.1636      0.187     4.680
82.3442      0.187     4.743
83.5419      0.187     4.808
84.7570      0.187     4.873
85.9899      0.187     4.939
87.2406      0.187     5.006
88.5096      0.188     5.074
89.7970      0.188     5.142
91.1031      0.188     5.211
92.4282      0.188     5.282
93.7726      0.188     5.352
95.1366      0.188     5.424
96.5204      0.188     5.497
97.9243      0.188     5.571
99.3486      0.188     5.645
100.794      0.188     5.720
102.260      0.188     5.796
103.747      0.189     5.873
105.256      0.189     5.951
106.787      0.189     6.030
108.340      0.189     6.110
109.916      0.189     6.190
111.515      0.189     6.272
113.137      0.189     6.354
114.783      0.189     6.437
116.452      0.190     6.522
118.146      0.190     6.607
119.865      0.190     6.693
121.608      0.190     6.780
123.377      0.190     6.867
125.171      0.190     6.956
126.992      0.190     7.046
128.839      0.191     7.136
130.713      0.191     7.228
132.615      0.191     7.320
134.543      0.191     7.413
136.500      0.191     7.508
138.486      0.191     7.603
140.500      0.192     7.699
142.544      0.192     7.796
144.617      0.192     7.893
146.721      0.192     7.992
148.855      0.192     8.091
151.020      0.193     8.192
153.217      0.193     8.293
155.445      0.193     8.395
157.706      0.193     8.498
160.000      0.193     8.601
162.327      0.194     8.705
164.688      0.194     8.811
167.084      0.194     8.916
169.514      0.194     9.023
171.980      0.195     9.130
174.481      0.195     9.238
177.019      0.195     9.346
179.594      0.196     9.455
182.206      0.196     9.564
184.856      0.196     9.674
187.545      0.196     9.783
190.273      0.197     9.893
193.041      0.197    10.003
195.849      0.197    10.115
198.697      0.198    10.230
201.587      0.198    10.351
204.520      0.199    10.470
207.494      0.199    10.569
210.512      0.199    10.646
213.574      0.200    10.705
216.681      0.200    10.752
219.833      0.200    10.811
223.030      0.200    10.900
226.274      0.200    11.030
229.565      0.200    11.204
232.905      0.201    11.420
236.292      0.201    11.658
239.729      0.202    11.874
243.216      0.203    12.039
246.754      0.203    12.147
250.343      0.204    12.209
253.984      0.204    12.261
257.678      0.205    12.352
261.426      0.205    12.501
265.229      0.205    12.693
269.087      0.206    12.883
273.001      0.207    13.037
276.972      0.208    13.145
281.000      0.208    13.214
285.088      0.209    13.279
289.234      0.209    13.381
293.441      0.209    13.534
297.709      0.210    13.719
302.040      0.211    13.900
306.433      0.212    14.046
310.890      0.212    14.160
315.412      0.213    14.264
320.000      0.214    14.385
324.655      0.214    14.543
329.377      0.215    14.711
334.168      0.216    14.860
339.028      0.217    14.993
343.959      0.217    15.110
348.962      0.218    15.242
354.038      0.219    15.400
359.188      0.220    15.556
364.412      0.221    15.708
369.713      0.222    15.852
375.090      0.223    15.976
380.546      0.224    16.095
386.081      0.225    16.217
391.697      0.226    16.343
397.394      0.227    16.466
403.175      0.228    16.577
409.039      0.230    16.683
414.989      0.231    16.796
421.025      0.232    16.902
427.149      0.233    16.986
433.362      0.235    17.062
439.665      0.236    17.150
446.060      0.237    17.244
452.548      0.239    17.336
459.131      0.240    17.435
465.809      0.241    17.544
472.584      0.243    17.642
479.458      0.244    17.718
486.432      0.246    17.801
493.507      0.248    17.889
500.686      0.249    17.955
507.968      0.251    18.032
515.357      0.253    18.113
522.853      0.255    18.167
530.458      0.257    18.224
538.174      0.259    18.275
546.002      0.261    18.307
553.943      0.263    18.331
562.001      0.266    18.333
570.175      0.268    18.311
578.469      0.271    18.258
586.883      0.273    18.185
595.419      0.275    18.109
604.080      0.278    18.031
612.866      0.280    17.970
621.780      0.283    17.898
630.824      0.286    17.797
640.000      0.289    17.675
649.309      0.292    17.517
658.753      0.295    17.323
668.335      0.299    17.106
678.056      0.302    16.870
687.919      0.305    16.609
697.925      0.309    16.321
708.077      0.312    16.013
718.376      0.316    15.671
728.825      0.319    15.281
739.426      0.323    14.857
750.181      0.327    14.400
761.093      0.330    13.907
772.163      0.334    13.393
783.394      0.338    12.850
794.789      0.341    12.259
806.349      0.345    11.613
818.078      0.349    10.924
829.977      0.353    10.189
842.050      0.356     9.400
854.298      0.359     8.568
866.724      0.363     7.682
879.330      0.366     6.748
892.120      0.368     5.783
905.097      0.371     4.772
918.262      0.373     3.716
931.618      0.375     2.633
945.169      0.376     1.516
958.917      0.377     0.381
972.864      0.377    -0.752
987.015      0.377    -1.886
1001.37      0.377    -3.040
1015.94      0.377    -4.235
1030.71      0.376    -5.483
1045.71      0.374    -6.765
1060.92      0.371    -8.051
1076.35      0.368    -9.295
1092.00      0.364   -10.455
1107.89      0.359   -11.534
1124.00      0.354   -12.549
1140.35      0.350   -13.514
1156.94      0.344   -14.440
1173.77      0.339   -15.326
1190.84      0.333   -16.139
1208.16      0.327   -16.839
1225.73      0.321   -17.421
1243.56      0.315   -17.899
1261.65      0.309   -18.308
1280.00      0.304   -18.674
1298.62      0.298   -18.996
1317.51      0.293   -19.293
1336.67      0.288   -19.536
1356.11      0.282   -19.699
1375.84      0.277   -19.764
1395.85      0.272   -19.724
1416.15      0.267   -19.619
1436.75      0.263   -19.462
1457.65      0.259   -19.276
1478.85      0.256   -19.111
1500.36      0.252   -18.952
1522.19      0.249   -18.761
1544.33      0.246   -18.540
1566.79      0.243   -18.288
1589.58      0.240   -18.007
1612.70      0.237   -17.704
1636.16      0.234   -17.384
1659.95      0.232   -17.051
1684.10      0.229   -16.690
1708.60      0.227   -16.303
1733.45      0.225   -15.906
1758.66      0.223   -15.502
1784.24      0.221   -15.108
1810.19      0.220   -14.726
1836.52      0.218   -14.347
1863.24      0.217   -13.996
1890.34      0.216   -13.656
1917.83      0.214   -13.296
1945.73      0.213   -12.941
1974.03      0.212   -12.589
2002.74      0.210   -12.211
2031.87      0.209   -11.826
2061.43      0.208   -11.449
2091.41      0.207   -11.067
2121.83      0.206   -10.663
2152.69      0.205   -10.236
2184.01      0.204    -9.797
2215.77      0.203    -9.354
2248.00      0.203    -8.933
2280.70      0.202    -8.566
2313.87      0.202    -8.244
2347.53      0.201    -7.928
2381.68      0.200    -7.578
2416.32      0.200    -7.181
2451.46      0.199    -6.745
2487.12      0.199    -6.293
2523.30      0.198    -5.865
2560.00      0.198    -5.477
2597.24      0.198    -5.126
2635.01      0.198    -4.809
2673.34      0.198    -4.524
2712.23      0.198    -4.269
2751.68      0.198    -4.041
2791.70      0.198    -3.824
2832.31      0.197    -3.597
2873.50      0.197    -3.355
2915.30      0.197    -3.094
2957.70      0.196    -2.803
3000.72      0.195    -2.480
3044.37      0.195    -2.137
3088.65      0.195    -1.774
3133.58      0.194    -1.396
3179.16      0.194    -1.022
3225.40      0.194    -0.667
3272.31      0.194    -0.330
3319.91      0.194    -0.008
3368.20      0.194     0.303
3417.19      0.194     0.608
3466.89      0.194     0.906
3517.32      0.194     1.201
3568.48      0.194     1.491
3620.39      0.194     1.779
3673.05      0.194     2.065
3726.47      0.194     2.350
3780.67      0.194     2.633
3835.67      0.194     2.916
3891.46      0.194     3.198
3948.06      0.194     3.481
4005.49      0.194     3.765
4063.75      0.194     4.050
4122.86      0.194     4.337
4182.82      0.194     4.627
4243.66      0.194     4.921
4305.39      0.194     5.219
4368.01      0.194     5.525
4431.55      0.194     5.844
4496.01      0.194     6.177
4561.40      0.194     6.523
4627.75      0.195     6.866
4695.06      0.195     7.182
4763.35      0.195     7.463
4832.64      0.196     7.713
4902.93      0.196     7.935
4974.24      0.196     8.156
5046.60      0.196     8.393
5120.00      0.196     8.648
5194.47      0.196     8.921
5270.03      0.196     9.208
5346.68      0.196     9.508
5424.45      0.196     9.821
5503.35      0.196    10.153
5583.40      0.196    10.508
5664.61      0.196    10.894
5747.01      0.197    11.305
5830.60      0.197    11.725
5915.41      0.198    12.114
6001.45      0.198    12.444
6088.74      0.199    12.711
6177.30      0.200    12.926
6267.15      0.200    13.119
6358.31      0.200    13.332
6450.80      0.200    13.584
6544.62      0.200    13.882
6639.82      0.200    14.224
6736.40      0.201    14.608
6834.38      0.201    15.015
6933.79      0.202    15.411
7034.64      0.202    15.772
7136.96      0.203    16.080
7240.77      0.204    16.339
7346.09      0.204    16.579
7452.94      0.205    16.836
7561.35      0.205    17.143
7671.33      0.205    17.509
7782.91      0.205    17.914
7896.12      0.206    18.312
8010.97      0.207    18.673
8127.49      0.208    18.994
8245.71      0.208    19.286
8365.65      0.209    19.583
8487.33      0.210    19.909
8610.78      0.210    20.248
8736.03      0.211    20.572
8863.09      0.212    20.873
8992.01      0.213    21.153
9122.80      0.213    21.442
9255.50      0.214    21.759
9390.12      0.215    22.087
9526.70      0.216    22.396
9665.27      0.217    22.682
9805.86      0.217    22.950
9948.49      0.218    23.227
10093.2      0.219    23.546
10240.0      0.219    23.888
10388.9      0.220    24.218
10540.1      0.221    24.531
10693.4      0.222    24.829
10848.9      0.223    25.131
11006.7      0.223    25.462
11166.8      0.224    25.804
11329.2      0.225    26.142
11494.0      0.226    26.473
11661.2      0.227    26.796
11830.8      0.228    27.127
12002.9      0.229    27.462
12177.5      0.230    27.799
12354.6      0.231    28.136
12534.3      0.232    28.458
12716.6      0.234    28.762
12901.6      0.235    29.063
13089.2      0.236    29.368
13279.6      0.237    29.679
13472.8      0.238    29.991
13668.8      0.239    30.294
13867.6      0.240    30.602
14069.3      0.241    30.916
14273.9      0.243    31.223
14481.5      0.244    31.532
14692.2      0.245    31.851
14905.9      0.246    32.180
15122.7      0.247    32.522
15342.7      0.248    32.869
15565.8      0.250    33.219
15792.2      0.251    33.582
16021.9      0.252    33.950
16255.0      0.254    34.301
16491.4      0.255    34.644
16731.3      0.257    34.999
16974.7      0.258    35.345
17221.6      0.260    35.657
17472.1      0.261    35.969
17726.2      0.263    36.301
17984.0      0.264    36.640
18245.6      0.266    36.988
18511.0      0.267    37.360
18780.2      0.269    37.741
19053.4      0.271    38.098
19330.5      0.272    38.455
19611.7      0.274    38.830
19897.0      0.276    39.197
20186.4      0.278    39.567
20480.0      0.280    39.952
20777.9      0.282    40.327
21080.1      0.284    40.697
21386.7      0.286    41.069
21697.8      0.289    41.417
22013.4      0.291    41.764
22333.6      0.293    42.116
22658.4      0.295    42.454
22988.0      0.298    42.811
23322.4      0.300    43.177
23661.6      0.303    43.536
24005.8      0.305    43.897
24355.0      0.308    44.242
24709.2      0.311    44.572
25068.6      0.314    44.879
25433.2      0.316    45.184
25803.2      0.319    45.502
26178.5      0.322    45.826
26559.3      0.325    46.169
26945.6      0.328    46.497
27337.5      0.331    46.787
27735.2      0.334    47.058
28138.6      0.337    47.315
28547.9      0.340    47.583
28963.1      0.343    47.890
29384.4      0.346    48.237
29811.8      0.350    48.584
30245.4      0.353    48.913
30685.3      0.357    49.227
31131.7      0.361    49.520
31584.5      0.365    49.809
32043.9      0.368    50.092
32510.0      0.372    50.369
32982.8      0.377    50.640
33462.6      0.381    50.900
33949.3      0.385    51.167
34443.1      0.389    51.440
34944.1      0.394    51.702
35452.4      0.399    51.929
35968.0      0.404    52.117
36491.2      0.408    52.297
37022.0      0.413    52.493
37560.5      0.418    52.719
38106.8      0.423    52.932
38661.1      0.428    53.089
39223.4      0.432    53.198
39793.9      0.435    53.244
