Freq[Hz]     dBSPL  Phase[Deg]
5.00000    -35.265   -30.021
5.07273    -34.781   -29.656
5.14651    -34.297   -29.296
5.22137    -33.812   -28.940
5.29732    -33.327   -28.588
5.37437    -32.841   -28.240
5.45254    -32.355   -27.896
5.53185    -31.868   -27.557
5.61231    -31.380   -27.222
5.69394    -30.892   -26.891
5.77676    -30.403   -26.564
5.86079    -29.914   -26.241
5.94604    -29.424   -25.922
6.03252    -28.933   -25.608
6.12027    -28.442   -25.297
6.20929    -27.951   -24.991
6.29961    -27.459   -24.688
6.39124    -26.966   -24.390
6.48420    -26.473   -24.095
6.57851    -25.979   -23.805
6.67420    -25.485   -23.518
6.77128    -24.991   -23.236
6.86977    -24.496   -22.957
6.96969    -24.000   -22.682
7.07107    -23.504   -22.412
7.17392    -23.007   -22.145
7.27827    -22.510   -21.882
7.38413    -22.012   -21.622
7.49154    -21.514   -21.367
7.60050    -21.016   -21.115
7.71105    -20.516   -20.867
7.82321    -20.017   -20.623
7.93701    -19.517   -20.382
8.05245    -19.016   -20.145
8.16958    -18.515   -19.912
8.28841    -18.013   -19.682
8.40896    -17.511   -19.456
8.53128    -17.008   -19.234
8.65537    -16.505   -19.015
8.78126    -16.001   -18.800
8.90899    -15.497   -18.588
9.03857    -14.992   -18.380
9.17004    -14.487   -18.175
9.30342    -13.981   -17.974
9.43874    -13.475   -17.776
9.57603    -12.968   -17.581
9.71532    -12.461   -17.390
9.85663    -11.953   -17.202
10.0000    -11.444   -17.018
10.1455    -10.935   -16.837
10.2930    -10.425   -16.659
10.4427     -9.915   -16.485
10.5946     -9.404   -16.313
10.7487     -8.893   -16.145
10.9051     -8.380   -15.981
11.0637     -7.868   -15.819
11.2246     -7.354   -15.661
11.3879     -6.840   -15.506
11.5535     -6.325   -15.354
11.7216     -5.810   -15.205
11.8921     -5.294   -15.059
12.0650     -4.777   -14.917
12.2405     -4.259   -14.777
12.4186     -3.741   -14.641
12.5992     -3.222   -14.507
12.7825     -2.702   -14.377
12.9684     -2.181   -14.250
13.1570     -1.659   -14.126
13.3484     -1.137   -14.005
13.5426     -0.614   -13.887
13.7395     -0.089   -13.772
13.9394      0.436   -13.660
14.1421      0.962   -13.552
14.3478      1.489   -13.446
14.5565      2.017   -13.343
14.7683      2.547   -13.243
14.9831      3.077   -13.147
15.2010      3.608   -13.053
15.4221      4.141   -12.963
15.6464      4.674   -12.875
15.8740      5.209   -12.791
16.1049      5.746   -12.710
16.3392      6.283   -12.631
16.5768      6.822   -12.556
16.8179      7.363   -12.485
17.0626      7.904   -12.416
17.3107      8.448   -12.350
17.5625      8.993   -12.288
17.8180      9.539   -12.229
18.0771     10.087   -12.174
18.3401     10.637   -12.121
18.6068     11.189   -12.073
18.8775     11.743   -12.027
19.1521     12.298   -11.985
19.4306     12.856   -11.947
19.7133     13.416   -11.912
20.0000     13.978   -11.881
20.2909     14.543   -11.854
20.5860     15.109   -11.831
20.8855     15.679   -11.811
21.1893     16.251   -11.796
21.4975     16.826   -11.785
21.8102     17.403   -11.778
22.1274     17.984   -11.776
22.4492     18.568   -11.778
22.7758     19.155   -11.785
23.1071     19.745   -11.797
23.4432     20.340   -11.815
23.7841     20.938   -11.837
24.1301     21.540   -11.865
24.4811     22.146   -11.899
24.8372     22.757   -11.940
25.1984     23.372   -11.986
25.5649     23.993   -12.040
25.9368     24.619   -12.101
26.3141     25.250   -12.169
26.6968     25.887   -12.246
27.0851     26.531   -12.331
27.4791     27.181   -12.426
27.8788     27.838   -12.531
28.2843     28.503   -12.646
28.6957     29.176   -12.773
29.1131     29.857   -12.913
29.5365     30.548   -13.067
29.9661     31.248   -13.236
30.4020     31.959   -13.422
30.8442     32.682   -13.626
31.2929     33.417   -13.851
31.7480     34.165   -14.099
32.2098     34.929   -14.372
32.6783     35.708   -14.674
33.1536     36.504   -15.009
33.6359     37.320   -15.382
34.1251     38.157   -15.797
34.6215     39.017   -16.263
35.1250     39.903   -16.788
35.6359     40.818   -17.382
36.1543     41.766   -18.060
36.6802     42.751   -18.837
37.2137     43.778   -19.738
37.7550     44.853   -20.791
38.3041     45.983   -22.037
38.8613     47.178   -23.530
39.4265     48.448   -25.350
40.0000     49.807   -27.607
40.5818     51.269   -30.472
41.1721     52.853   -34.202
41.7710     54.573   -39.205
42.3785     56.428   -46.133
42.9949     58.365   -55.982
43.6203     60.193   -69.979
44.2548     61.487   -88.502
44.8985     61.779  -108.968
45.5515     61.119  -126.869
46.2141     60.005  -140.162
46.8863     58.826  -149.489
47.5683     57.743  -156.075
48.2602     56.798  -160.862
48.9621     55.987  -164.454
49.6743     55.294  -167.232
50.3968     54.703  -169.437
51.1299     54.198  -171.227
51.8736     53.767  -172.709
52.6281     53.398  -173.955
53.3936     53.084  -175.019
54.1702     52.817  -175.938
54.9581     52.591  -176.742
55.7575     52.401  -177.451
56.5685     52.243  -178.083
57.3914     52.114  -178.650
58.2261     52.010  -179.163
59.0730     51.930  -179.630
59.9323     51.870   179.942
60.8040     51.829   179.548
61.6884     51.805   179.183
62.5857     51.797   178.843
63.4960     51.804   178.524
64.4196     51.824   178.226
65.3566     51.856   177.944
66.3073     51.899   177.677
67.2717     51.953   177.423
68.2502     52.017   177.180
69.2429     52.089   176.949
70.2501     52.171   176.726
71.2719     52.260   176.511
72.3086     52.357   176.304
73.3603     52.461   176.104
74.4274     52.571   175.909
75.5099     52.688   175.719
76.6083     52.810   175.534
77.7226     52.938   175.353
78.8531     53.071   175.176
80.0000     53.209   175.002
81.1636     53.352   174.831
82.3442     53.499   174.662
83.5419     53.651   174.496
84.7570     53.806   174.331
85.9899     53.966   174.168
87.2406     54.128   174.006
88.5096     54.295   173.846
89.7970     54.464   173.686
91.1031     54.637   173.527
92.4282     54.813   173.369
93.7726     54.992   173.211
95.1366     55.173   173.053
96.5204     55.357   172.895
97.9243     55.544   172.737
99.3486     55.733   172.579
100.794     55.924   172.421
102.260     56.118   172.262
103.747     56.313   172.102
105.256     56.511   171.942
106.787     56.711   171.780
108.340     56.912   171.618
109.916     57.116   171.455
111.515     57.321   171.291
113.137     57.528   171.125
114.783     57.736   170.958
116.452     57.946   170.790
118.146     58.158   170.620
119.865     58.371   170.449
121.608     58.586   170.276
123.377     58.802   170.101
125.171     59.019   169.924
126.992     59.237   169.745
128.839     59.457   169.565
130.713     59.678   169.382
132.615     59.900   169.197
134.543     60.123   169.010
136.500     60.348   168.820
138.486     60.573   168.628
140.500     60.799   168.434
142.544     61.027   168.237
144.617     61.255   168.038
146.721     61.485   167.835
148.855     61.715   167.630
151.020     61.946   167.422
153.217     62.178   167.211
155.445     62.411   166.997
157.706     62.645   166.780
160.000     62.879   166.560
162.327     63.114   166.336
164.688     63.351   166.109
167.084     63.587   165.879
169.514     63.825   165.645
171.980     64.063   165.407
174.481     64.302   165.165
177.019     64.542   164.920
179.594     64.782   164.670
182.206     65.023   164.417
184.856     65.265   164.159
187.545     65.508   163.897
190.273     65.750   163.631
193.041     65.994   163.360
195.849     66.238   163.085
198.697     66.483   162.805
201.587     66.728   162.520
204.520     66.974   162.230
207.494     67.221   161.934
210.512     67.468   161.634
213.574     67.716   161.328
216.681     67.964   161.017
219.833     68.212   160.700
223.030     68.462   160.377
226.274     68.711   160.048
229.565     68.962   159.713
232.905     69.212   159.372
236.292     69.464   159.024
239.729     69.715   158.670
243.216     69.968   158.308
246.754     70.220   157.940
250.343     70.473   157.564
253.984     70.727   157.181
257.678     70.981   156.791
261.426     71.236   156.393
265.229     71.491   155.986
269.087     71.746   155.571
273.001     72.002   155.148
276.972     72.258   154.716
281.000     72.515   154.275
285.088     72.772   153.825
289.234     73.030   153.365
293.441     73.287   152.895
297.709     73.546   152.416
302.040     73.804   151.926
306.433     74.063   151.425
310.890     74.322   150.913
315.412     74.582   150.390
320.000     74.841   149.855
324.655     75.102   149.308
329.377     75.362   148.749
334.168     75.622   148.177
339.028     75.883   147.592
343.959     76.144   146.994
348.962     76.405   146.381
354.038     76.666   145.754
359.188     76.928   145.113
364.412     77.189   144.457
369.713     77.450   143.784
375.090     77.711   143.096
380.546     77.973   142.392
386.081     78.234   141.670
391.697     78.495   140.931
397.394     78.755   140.174
403.175     79.015   139.399
409.039     79.275   138.605
414.989     79.535   137.791
421.025     79.794   136.958
427.149     80.052   136.104
433.362     80.309   135.229
439.665     80.566   134.333
446.060     80.822   133.416
452.548     81.077   132.476
459.131     81.330   131.513
465.809     81.583   130.527
472.584     81.834   129.518
479.458     82.083   128.484
486.432     82.331   127.427
493.507     82.577   126.345
500.686     82.820   125.238
507.968     83.062   124.106
515.357     83.301   122.948
522.853     83.538   121.766
530.458     83.771   120.558
538.174     84.002   119.325
546.002     84.230   118.067
553.943     84.454   116.784
562.001     84.674   115.476
570.175     84.891   114.145
578.469     85.104   112.789
586.883     85.312   111.411
595.419     85.516   110.011
604.080     85.715   108.589
612.866     85.909   107.147
621.780     86.098   105.686
630.824     86.282   104.207
640.000     86.460   102.711
649.309     86.632   101.201
658.753     86.799    99.677
668.335     86.959    98.141
678.056     87.113    96.595
687.919     87.261    95.040
697.925     87.403    93.480
708.077     87.538    91.915
718.376     87.667    90.348
728.825     87.790    88.780
739.426     87.906    87.214
750.181     88.015    85.652
761.093     88.118    84.096
772.163     88.215    82.547
783.394     88.306    81.007
794.789     88.390    79.479
806.349     88.469    77.964
818.078     88.542    76.463
829.977     88.609    74.978
842.050     88.670    73.511
854.298     88.727    72.062
866.724     88.778    70.634
879.330     88.825    69.226
892.120     88.867    67.841
905.097     88.905    66.478
918.262     88.938    65.138
931.618     88.967    63.823
945.169     88.993    62.532
958.917     89.015    61.265
972.864     89.034    60.024
987.015     89.050    58.808
1001.37     89.063    57.618
1015.94     89.073    56.452
1030.71     89.081    55.312
1045.71     89.086    54.198
1060.92     89.090    53.108
1076.35     89.091    52.042
1092.00     89.090    51.002
1107.89     89.088    49.985
1124.00     89.084    48.992
1140.35     89.079    48.022
1156.94     89.073    47.075
1173.77     89.065    46.151
1190.84     89.057    45.249
1208.16     89.047    44.368
1225.73     89.037    43.508
1243.56     89.026    42.669
1261.65     89.015    41.850
1280.00     89.002    41.051
1298.62     88.990    40.270
1317.51     88.977    39.508
1336.67     88.963    38.765
1356.11     88.949    38.039
1375.84     88.935    37.330
1395.85     88.921    36.638
1416.15     88.907    35.962
1436.75     88.892    35.302
1457.65     88.878    34.657
1478.85     88.863    34.027
1500.36     88.848    33.412
1522.19     88.834    32.811
1544.33     88.819    32.223
1566.79     88.805    31.649
1589.58     88.790    31.088
1612.70     88.776    30.539
1636.16     88.762    30.002
1659.95     88.748    29.477
1684.10     88.734    28.964
1708.60     88.720    28.462
1733.45     88.706    27.971
1758.66     88.693    27.490
1784.24     88.680    27.020
1810.19     88.667    26.560
1836.52     88.654    26.109
1863.24     88.641    25.668
1890.34     88.629    25.236
1917.83     88.617    24.813
1945.73     88.605    24.398
1974.03     88.593    23.992
2002.74     88.582    23.595
2031.87     88.571    23.205
2061.43     88.560    22.823
2091.41     88.549    22.449
2121.83     88.538    22.082
2152.69     88.528    21.722
2184.01     88.518    21.369
2215.77     88.508    21.023
2248.00     88.498    20.684
2280.70     88.488    20.351
2313.87     88.479    20.025
2347.53     88.470    19.705
2381.68     88.461    19.390
2416.32     88.453    19.082
2451.46     88.444    18.779
2487.12     88.436    18.482
2523.30     88.428    18.191
2560.00     88.420    17.904
2597.24     88.412    17.623
2635.01     88.405    17.347
2673.34     88.397    17.076
2712.23     88.390    16.810
2751.68     88.383    16.549
2791.70     88.377    16.292
2832.31     88.370    16.039
2873.50     88.364    15.792
2915.30     88.357    15.548
2957.70     88.351    15.309
3000.72     88.345    15.073
3044.37     88.339    14.842
3088.65     88.334    14.615
3133.58     88.328    14.392
3179.16     88.323    14.172
3225.40     88.318    13.956
3272.31     88.312    13.744
3319.91     88.307    13.536
3368.20     88.303    13.330
3417.19     88.298    13.129
3466.89     88.293    12.930
3517.32     88.289    12.735
3568.48     88.285    12.543
3620.39     88.280    12.355
3673.05     88.276    12.169
3726.47     88.272    11.986
3780.67     88.268    11.807
3835.67     88.264    11.630
3891.46     88.261    11.456
3948.06     88.257    11.285
4005.49     88.254    11.117
4063.75     88.250    10.951
4122.86     88.247    10.788
4182.82     88.244    10.628
4243.66     88.241    10.470
4305.39     88.238    10.314
4368.01     88.235    10.161
4431.55     88.232    10.011
4496.01     88.229     9.863
4561.40     88.226     9.717
4627.75     88.224     9.573
4695.06     88.221     9.432
4763.35     88.218     9.293
4832.64     88.216     9.156
4902.93     88.214     9.021
4974.24     88.211     8.888
5046.60     88.209     8.758
5120.00     88.207     8.629
5194.47     88.205     8.502
5270.03     88.203     8.378
5346.68     88.201     8.255
5424.45     88.199     8.134
5503.35     88.197     8.015
5583.40     88.195     7.897
5664.61     88.193     7.782
5747.01     88.192     7.668
5830.60     88.190     7.556
5915.41     88.188     7.446
6001.45     88.187     7.337
6088.74     88.185     7.230
6177.30     88.183     7.124
6267.15     88.182     7.021
6358.31     88.181     6.918
6450.80     88.179     6.818
6544.62     88.178     6.718
6639.82     88.177     6.621
6736.40     88.175     6.524
6834.38     88.174     6.429
6933.79     88.173     6.336
7034.64     88.172     6.244
7136.96     88.171     6.153
7240.77     88.169     6.064
7346.09     88.168     5.976
7452.94     88.167     5.889
7561.35     88.166     5.804
7671.33     88.165     5.720
7782.91     88.164     5.637
7896.12     88.163     5.555
8010.97     88.162     5.475
8127.49     88.162     5.395
8245.71     88.161     5.317
8365.65     88.160     5.240
8487.33     88.159     5.165
8610.78     88.158     5.090
8736.03     88.158     5.016
8863.09     88.157     4.944
8992.01     88.156     4.872
9122.80     88.155     4.802
9255.50     88.155     4.733
9390.12     88.154     4.664
9526.70     88.153     4.597
9665.27     88.153     4.531
9805.86     88.152     4.465
9948.49     88.152     4.401
10093.2     88.151     4.337
10240.0     88.150     4.275
10388.9     88.150     4.213
10540.1     88.149     4.152
10693.4     88.149     4.092
10848.9     88.148     4.033
11006.7     88.148     3.975
11166.8     88.147     3.918
11329.2     88.147     3.861
11494.0     88.146     3.806
11661.2     88.146     3.751
11830.8     88.146     3.697
12002.9     88.145     3.644
12177.5     88.145     3.591
12354.6     88.144     3.540
12534.3     88.144     3.489
12716.6     88.144     3.438
12901.6     88.143     3.389
13089.2     88.143     3.340
13279.6     88.143     3.292
13472.8     88.142     3.245
13668.8     88.142     3.198
13867.6     88.142     3.152
14069.3     88.141     3.107
14273.9     88.141     3.062
14481.5     88.141     3.018
14692.2     88.141     2.975
14905.9     88.140     2.932
15122.7     88.140     2.890
15342.7     88.140     2.848
15565.8     88.140     2.807
15792.2     88.139     2.767
16021.9     88.139     2.727
16255.0     88.139     2.688
16491.4     88.139     2.649
16731.3     88.138     2.611
16974.7     88.138     2.574
17221.6     88.138     2.537
17472.1     88.138     2.500
17726.2     88.138     2.464
17984.0     88.138     2.429
18245.6     88.137     2.394
18511.0     88.137     2.360
18780.2     88.137     2.326
19053.4     88.137     2.292
19330.5     88.137     2.259
19611.7     88.137     2.227
19897.0     88.136     2.195
20186.4     88.136     2.163
20480.0     88.136     2.132
20777.9     88.136     2.102
21080.1     88.136     2.072
21386.7     88.136     2.042
21697.8     88.136     2.012
22013.4     88.135     1.984
22333.6     88.135     1.955
22658.4     88.135     1.927
22988.0     88.135     1.899
23322.4     88.135     1.872
23661.6     88.135     1.845
24005.8     88.135     1.819
24355.0     88.135     1.793
24709.2     88.135     1.767
25068.6     88.135     1.742
25433.2     88.134     1.717
25803.2     88.134     1.692
26178.5     88.134     1.668
26559.3     88.134     1.644
26945.6     88.134     1.620
27337.5     88.134     1.597
27735.2     88.134     1.574
28138.6     88.134     1.551
28547.9     88.134     1.529
28963.1     88.134     1.507
29384.4     88.134     1.486
29811.8     88.134     1.464
30245.4     88.134     1.443
30685.3     88.133     1.423
31131.7     88.133     1.402
31584.5     88.133     1.382
32043.9     88.133     1.362
32510.0     88.133     1.343
32982.8     88.133     1.323
33462.6     88.133     1.304
33949.3     88.133     1.286
34443.1     88.133     1.267
34944.1     88.133     1.249
35452.4     88.133     1.231
35968.0     88.133     1.214
36491.2     88.133     1.196
37022.0     88.133     1.179
37560.5     88.133     1.162
38106.8     88.133     1.145
38661.1     88.133     1.129
39223.4     88.133     1.113
39793.9     88.133     1.097
