Freq[Hz]     dBSPL  Phase[Deg]
5.00000    -15.802  -117.176
5.07273    -15.639  -117.214
5.14651    -15.428  -117.259
5.22137    -15.147  -117.311
5.29732    -14.838  -117.352
5.37437    -14.497  -117.392
5.45254    -14.157  -117.426
5.53185    -13.816  -117.458
5.61231    -13.476  -117.491
5.69394    -13.135  -117.523
5.77676    -12.794  -117.556
5.86079    -12.454  -117.588
5.94604    -12.113  -117.620
6.03252    -11.773  -117.653
6.12027    -11.432  -117.686
6.20929    -11.091  -117.719
6.29961    -10.751  -117.752
6.39124    -10.410  -117.785
6.48420    -10.070  -117.819
6.57851     -9.729  -117.853
6.67420     -9.389  -117.887
6.77128     -9.048  -117.921
6.86977     -8.707  -117.956
6.96969     -8.367  -117.990
7.07107     -8.026  -118.026
7.17392     -7.686  -118.062
7.27827     -7.345  -118.098
7.38413     -7.004  -118.134
7.49154     -6.664  -118.171
7.60050     -6.323  -118.208
7.71105     -5.983  -118.245
7.82321     -5.642  -118.283
7.93701     -5.302  -118.321
8.05245     -4.961  -118.360
8.16958     -4.620  -118.399
8.28841     -4.280  -118.439
8.40896     -3.939  -118.479
8.53128     -3.599  -118.519
8.65537     -3.258  -118.560
8.78126     -2.918  -118.602
8.90899     -2.577  -118.644
9.03857     -2.236  -118.687
9.17004     -1.896  -118.730
9.30342     -1.555  -118.773
9.43874     -1.215  -118.817
9.57603     -0.874  -118.862
9.71532     -0.533  -118.907
9.85663     -0.193  -118.953
10.0000      0.148  -118.999
10.1455      0.488  -119.046
10.2930      0.829  -119.094
10.4427      1.169  -119.142
10.5946      1.510  -119.191
10.7487      1.851  -119.240
10.9051      2.191  -119.290
11.0637      2.532  -119.341
11.2246      2.872  -119.392
11.3879      3.213  -119.444
11.5535      3.554  -119.497
11.7216      3.894  -119.550
11.8921      4.235  -119.604
12.0650      4.575  -119.659
12.2405      4.916  -119.715
12.4186      5.256  -119.771
12.5992      5.597  -119.828
12.7825      5.938  -119.886
12.9684      6.278  -119.945
13.1570      6.619  -120.004
13.3484      6.959  -120.064
13.5426      7.300  -120.125
13.7395      7.641  -120.187
13.9394      7.981  -120.250
14.1421      8.322  -120.313
14.3478      8.662  -120.378
14.5565      9.003  -120.443
14.7683      9.343  -120.510
14.9831      9.684  -120.577
15.2010     10.025  -120.646
15.4221     10.365  -120.715
15.6464     10.706  -120.785
15.8740     11.046  -120.857
16.1049     11.387  -120.929
16.3392     11.727  -121.003
16.5768     12.068  -121.077
16.8179     12.409  -121.153
17.0626     12.749  -121.229
17.3107     13.090  -121.307
17.5625     13.430  -121.386
17.8180     13.771  -121.465
18.0771     14.112  -121.546
18.3401     14.452  -121.629
18.6068     14.793  -121.712
18.8775     15.133  -121.796
19.1521     15.474  -121.882
19.4306     15.814  -121.969
19.7133     16.155  -122.057
20.0000     16.496  -122.147
20.2909     16.836  -122.237
20.5860     17.177  -122.330
20.8855     17.517  -122.423
21.1893     17.858  -122.518
21.4975     18.199  -122.614
21.8102     18.539  -122.711
22.1274     18.880  -122.810
22.4492     19.220  -122.910
22.7758     19.561  -123.012
23.1071     19.901  -123.115
23.4432     20.242  -123.220
23.7841     20.583  -123.326
24.1301     20.923  -123.434
24.4811     21.264  -123.543
24.8372     21.604  -123.654
25.1984     21.945  -123.767
25.5649     22.285  -123.881
25.9368     22.626  -123.996
26.3141     22.967  -124.114
26.6968     23.307  -124.233
27.0851     23.648  -124.354
27.4791     23.988  -124.477
27.8788     24.329  -124.602
28.2843     24.670  -124.728
28.6957     25.010  -124.856
29.1131     25.351  -124.987
29.5365     25.691  -125.119
29.9661     26.032  -125.253
30.4020     26.372  -125.389
30.8442     26.713  -125.527
31.2929     27.054  -125.667
31.7480     27.394  -125.809
32.2098     27.735  -125.954
32.6783     28.075  -126.100
33.1536     28.416  -126.249
33.6359     28.757  -126.400
34.1251     29.097  -126.553
34.6215     29.438  -126.709
35.1250     29.778  -126.866
35.6359     30.119  -127.027
36.1543     30.459  -127.189
36.6802     30.800  -127.354
37.2137     31.141  -127.522
37.7550     31.481  -127.692
38.3041     31.822  -127.865
38.8613     32.162  -128.040
39.4265     32.503  -128.218
40.0000     32.844  -128.399
40.5818     33.184  -128.582
41.1721     33.525  -128.769
41.7710     33.865  -128.958
42.3785     34.206  -129.150
42.9949     34.546  -129.345
43.6203     34.887  -129.544
44.2548     35.228  -129.745
44.8985     35.568  -129.949
45.5515     35.909  -130.157
46.2141     36.249  -130.368
46.8863     36.590  -130.582
47.5683     36.930  -130.800
48.2602     37.271  -131.021
48.9621     37.612  -131.245
49.6743     37.952  -131.473
50.3968     38.293  -131.705
51.1299     38.633  -131.941
51.8736     38.974  -132.180
52.6281     39.315  -132.423
53.3936     39.655  -132.670
54.1702     39.996  -132.921
54.9581     40.336  -133.177
55.7575     40.677  -133.436
56.5685     41.017  -133.700
57.3914     41.358  -133.968
58.2261     41.699  -134.241
59.0730     42.039  -134.518
59.9323     42.380  -134.800
60.8040     42.720  -135.087
61.6884     43.061  -135.378
62.5857     43.402  -135.675
63.4960     43.742  -135.977
64.4196     44.083  -136.284
65.3566     44.423  -136.596
66.3073     44.764  -136.914
67.2717     45.104  -137.238
68.2502     45.445  -137.567
69.2429     45.786  -137.903
70.2501     46.126  -138.245
71.2719     46.467  -138.593
72.3086     46.807  -138.947
73.3603     47.148  -139.309
74.4274     47.488  -139.677
75.5099     47.829  -140.053
76.6083     48.170  -140.436
77.7226     48.510  -140.826
78.8531     48.851  -141.225
80.0000     49.191  -141.632
81.1636     49.532  -142.048
82.3442     49.873  -142.472
83.5419     50.213  -142.906
84.7570     50.554  -143.350
85.9899     50.894  -143.804
87.2406     51.235  -144.269
88.5096     51.575  -144.745
89.7970     51.916  -145.234
91.1031     52.257  -145.736
92.4282     52.597  -146.251
93.7726     52.938  -146.782
95.1366     53.278  -147.329
96.5204     53.619  -147.894
97.9243     53.961  -148.481
99.3486     54.302  -149.098
100.794     54.646  -149.757
102.260     54.985  -150.473
103.747     55.313  -151.233
105.256     55.636  -152.034
106.787     55.934  -152.842
108.340     56.217  -153.575
109.916     56.500  -154.227
111.515     56.773  -154.772
113.137     57.056  -155.164
114.783     57.370  -155.468
116.452     57.712  -155.748
118.146     58.096  -156.083
119.865     58.518  -156.615
121.608     58.958  -157.445
123.377     59.396  -158.633
125.171     59.813  -160.218
126.992     60.167  -162.134
128.839     60.448  -164.214
130.713     60.662  -166.341
132.615     60.791  -168.371
134.543     60.840  -170.068
136.500     60.851  -171.310
138.486     60.844  -172.078
140.500     60.839  -172.365
142.544     60.862  -172.221
144.617     60.931  -171.741
146.721     61.051  -171.026
148.855     61.226  -170.179
151.020     61.449  -169.272
153.217     61.721  -168.364
155.445     62.036  -167.516
157.706     62.389  -166.769
160.000     62.774  -166.141
162.327     63.192  -165.660
164.688     63.640  -165.387
167.084     64.106  -165.371
169.514     64.580  -165.641
171.980     65.046  -166.206
174.481     65.480  -167.001
177.019     65.890  -167.949
179.594     66.269  -168.990
182.206     66.618  -170.025
184.856     66.959  -171.010
187.545     67.301  -171.972
190.273     67.648  -172.958
193.041     68.002  -174.038
195.849     68.344  -175.248
198.697     68.670  -176.578
201.587     68.972  -178.020
204.520     69.237  -179.522
207.494     69.466   178.996
210.512     69.658   177.606
213.574     69.825   176.354
216.681     69.964   175.290
219.833     70.084   174.494
223.030     70.207   174.004
226.274     70.348   173.798
229.565     70.523   173.863
232.905     70.762   174.126
236.292     71.093   174.385
239.729     71.515   174.342
243.216     71.993   173.672
246.754     72.437   172.194
250.343     72.747   170.114
253.984     72.892   167.925
257.678     72.867   166.260
261.426     72.750   165.687
265.229     72.689   166.324
269.087     72.806   167.789
273.001     73.163   169.370
276.972     73.697   170.334
281.000     74.281   170.274
285.088     74.798   169.216
289.234     75.170   167.594
293.441     75.411   166.004
297.709     75.575   164.881
302.040     75.745   164.367
306.433     75.999   164.234
310.890     76.330   164.130
315.412     76.718   163.814
320.000     77.131   163.129
324.655     77.521   162.090
329.377     77.872   160.845
334.168     78.185   159.527
339.028     78.465   158.250
343.959     78.728   157.098
348.962     78.998   156.084
354.038     79.295   155.125
359.188     79.612   154.114
364.412     79.943   152.968
369.713     80.273   151.648
375.090     80.589   150.176
380.546     80.889   148.589
386.081     81.177   146.894
391.697     81.440   145.093
397.394     81.675   143.210
403.175     81.875   141.286
409.039     82.028   139.413
414.989     82.145   137.706
421.025     82.245   136.215
427.149     82.342   134.932
433.362     82.445   133.825
439.665     82.561   132.837
446.060     82.685   131.915
452.548     82.806   131.086
459.131     82.934   130.392
465.809     83.086   129.818
472.584     83.274   129.281
479.458     83.500   128.640
486.432     83.733   127.797
493.507     83.944   126.789
500.686     84.119   125.756
507.968     84.274   124.848
515.357     84.437   124.104
522.853     84.625   123.467
530.458     84.848   122.806
538.174     85.089   121.992
546.002     85.316   121.027
553.943     85.524   120.001
562.001     85.713   119.009
570.175     85.897   118.108
578.469     86.088   117.304
586.883     86.297   116.564
595.419     86.529   115.832
604.080     86.782   115.052
612.866     87.058   114.167
621.780     87.347   113.120
630.824     87.644   111.866
640.000     87.931   110.382
649.309     88.192   108.691
658.753     88.409   106.875
668.335     88.577   105.073
678.056     88.707   103.430
687.919     88.823   102.035
697.925     88.954   100.881
708.077     89.123    99.873
718.376     89.339    98.859
728.825     89.593    97.686
739.426     89.865    96.261
750.181     90.135    94.547
761.093     90.386    92.550
772.163     90.601    90.311
783.394     90.763    87.928
794.789     90.868    85.532
806.349     90.924    83.243
818.078     90.939    81.161
829.977     90.938    79.325
842.050     90.933    77.717
854.298     90.932    76.313
866.724     90.948    75.067
879.330     90.982    73.912
892.120     91.028    72.823
905.097     91.097    71.763
918.262     91.185    70.661
931.618     91.276    69.504
945.169     91.372    68.299
958.917     91.470    67.039
972.864     91.563    65.744
987.015     91.659    64.418
1001.37     91.755    63.046
1015.94     91.851    61.619
1030.71     91.946    60.115
1045.71     92.034    58.515
1060.92     92.108    56.814
1076.35     92.157    55.038
1092.00     92.173    53.243
1107.89     92.154    51.510
1124.00     92.104    49.919
1140.35     92.032    48.540
1156.94     91.953    47.410
1173.77     91.884    46.525
1190.84     91.844    45.823
1208.16     91.839    45.207
1225.73     91.864    44.588
1243.56     91.913    43.902
1261.65     91.970    43.135
1280.00     92.031    42.319
1298.62     92.099    41.468
1317.51     92.178    40.581
1336.67     92.273    39.622
1356.11     92.386    38.516
1375.84     92.499    37.213
1395.85     92.600    35.708
1416.15     92.677    34.029
1436.75     92.715    32.247
1457.65     92.715    30.461
1478.85     92.680    28.750
1500.36     92.620    27.172
1522.19     92.548    25.749
1544.33     92.474    24.467
1566.79     92.404    23.296
1589.58     92.344    22.191
1612.70     92.293    21.101
1636.16     92.243    19.994
1659.95     92.189    18.870
1684.10     92.126    17.738
1708.60     92.049    16.632
1733.45     91.959    15.594
1758.66     91.865    14.634
1784.24     91.766    13.750
1810.19     91.666    12.940
1836.52     91.562    12.207
1863.24     91.458    11.567
1890.34     91.355    11.031
1917.83     91.262    10.594
1945.73     91.184    10.225
1974.03     91.122     9.888
2002.74     91.075     9.543
2031.87     91.039     9.162
2061.43     91.007     8.740
2091.41     90.975     8.290
2121.83     90.943     7.820
2152.69     90.912     7.338
2184.01     90.879     6.844
2215.77     90.844     6.345
2248.00     90.806     5.848
2280.70     90.766     5.367
2313.87     90.726     4.904
2347.53     90.687     4.449
2381.68     90.645     4.004
2416.32     90.605     3.575
2451.46     90.563     3.158
2487.12     90.519     2.768
2523.30     90.478     2.405
2560.00     90.442     2.045
2597.24     90.408     1.675
2635.01     90.373     1.282
2673.34     90.326     0.885
2712.23     90.267     0.543
2751.68     90.199     0.307
2791.70     90.133     0.203
2832.31     90.081     0.223
2873.50     90.054     0.315
2915.30     90.052     0.412
2957.70     90.074     0.451
3000.72     90.109     0.393
3044.37     90.148     0.236
3088.65     90.186    -0.004
3133.58     90.220    -0.307
3179.16     90.247    -0.648
3225.40     90.269    -1.004
3272.31     90.287    -1.363
3319.91     90.300    -1.711
3368.20     90.312    -2.035
3417.19     90.322    -2.323
3466.89     90.336    -2.560
3517.32     90.358    -2.743
3568.48     90.398    -2.884
3620.39     90.466    -3.035
3673.05     90.565    -3.292
3726.47     90.685    -3.740
3780.67     90.816    -4.447
3835.67     90.937    -5.449
3891.46     91.024    -6.716
3948.06     91.059    -8.146
4005.49     91.035    -9.592
4063.75     90.952   -10.899
4122.86     90.823   -11.916
4182.82     90.679   -12.557
4243.66     90.553   -12.855
4305.39     90.467   -12.919
4368.01     90.431   -12.896
4431.55     90.436   -12.919
4496.01     90.467   -13.062
4561.40     90.508   -13.335
4627.75     90.551   -13.714
4695.06     90.595   -14.177
4763.35     90.639   -14.711
4832.64     90.682   -15.313
4902.93     90.726   -15.987
4974.24     90.767   -16.744
5046.60     90.803   -17.596
5120.00     90.827   -18.539
5194.47     90.830   -19.548
5270.03     90.809   -20.567
5346.68     90.763   -21.539
5424.45     90.696   -22.405
5503.35     90.617   -23.119
5583.40     90.539   -23.667
5664.61     90.472   -24.062
5747.01     90.433   -24.360
5830.60     90.422   -24.650
5915.41     90.436   -25.011
6001.45     90.465   -25.501
6088.74     90.492   -26.131
6177.30     90.504   -26.845
6267.15     90.503   -27.567
6358.31     90.502   -28.277
6450.80     90.503   -28.996
6544.62     90.510   -29.753
6639.82     90.521   -30.593
6736.40     90.524   -31.544
6834.38     90.502   -32.553
6933.79     90.459   -33.549
7034.64     90.398   -34.485
7136.96     90.325   -35.333
7240.77     90.246   -36.083
7346.09     90.169   -36.741
7452.94     90.090   -37.308
7561.35     90.018   -37.777
7671.33     89.955   -38.159
7782.91     89.909   -38.476
7896.12     89.882   -38.758
8010.97     89.878   -39.055
8127.49     89.891   -39.405
8245.71     89.919   -39.824
8365.65     89.962   -40.338
8487.33     90.016   -40.984
8610.78     90.071   -41.787
8736.03     90.118   -42.737
8863.09     90.147   -43.805
8992.01     90.151   -44.917
9122.80     90.138   -46.008
9255.50     90.111   -47.036
9390.12     90.087   -47.990
9526.70     90.076   -48.924
9665.27     90.071   -49.886
9805.86     90.076   -50.910
9948.49     90.082   -52.035
10093.2     90.079   -53.252
10240.0     90.062   -54.527
10388.9     90.032   -55.822
10540.1     89.992   -57.117
10693.4     89.946   -58.408
10848.9     89.900   -59.714
11006.7     89.850   -61.067
11166.8     89.789   -62.469
11329.2     89.713   -63.906
11494.0     89.615   -65.343
11661.2     89.496   -66.718
11830.8     89.363   -67.993
12002.9     89.222   -69.159
12177.5     89.078   -70.206
12354.6     88.936   -71.125
12534.3     88.811   -71.940
12716.6     88.702   -72.703
12901.6     88.613   -73.446
13089.2     88.551   -74.237
13279.6     88.501   -75.133
13472.8     88.457   -76.132
13668.8     88.423   -77.266
13867.6     88.380   -78.542
14069.3     88.332   -79.944
14273.9     88.274   -81.498
14481.5     88.187   -83.177
14692.2     88.073   -84.928
14905.9     87.926   -86.723
15122.7     87.736   -88.489
15342.7     87.511   -90.149
15565.8     87.253   -91.666
15792.2     86.957   -92.966
16021.9     86.637   -93.967
16255.0     86.299   -94.605
16491.4     85.958   -94.800
16731.3     85.651   -94.557
16974.7     85.400   -93.956
17221.6     85.233   -93.128
17472.1     85.168   -92.295
17726.2     85.186   -91.662
17984.0     85.270   -91.363
18245.6     85.387   -91.467
18511.0     85.515   -91.960
18780.2     85.644   -92.803
19053.4     85.760   -93.950
19330.5     85.865   -95.361
19611.7     85.947   -97.008
19897.0     85.999   -98.810
20186.4     86.029  -100.675
20480.0     86.053  -102.559
20777.9     86.098  -104.501
21080.1     86.193  -106.695
21386.7     86.322  -109.421
21697.8     86.439  -112.880
22013.4     86.488  -117.128
22333.6     86.400  -121.989
22658.4     86.147  -127.119
22988.0     85.719  -132.152
23322.4     85.127  -136.754
23661.6     84.409  -140.723
24005.8     83.584  -143.955
24355.0     82.663  -146.323
24709.2     81.666  -147.673
25068.6     80.602  -147.797
25433.2     79.497  -146.426
25803.2     78.415  -143.332
26178.5     77.479  -138.525
26559.3     76.845  -132.436
26945.6     76.635  -125.827
27337.5     76.883  -119.621
27735.2     77.503  -114.717
28138.6     78.329  -111.710
28547.9     79.217  -110.808
28963.1     80.052  -111.919
29384.4     80.762  -114.760
29811.8     81.302  -118.963
30245.4     81.651  -124.146
30685.3     81.789  -129.896
31131.7     81.721  -135.798
31584.5     81.475  -141.548
32043.9     81.065  -146.930
32510.0     80.514  -151.769
32982.8     79.853  -155.970
33462.6     79.085  -159.433
33949.3     78.227  -161.993
34443.1     77.298  -163.463
34944.1     76.334  -163.669
35452.4     75.403  -162.546
35968.0     74.607  -160.300
36491.2     74.028  -157.383
37022.0     73.717  -154.409
37560.5     73.644  -152.021
38106.8     73.708  -150.562
38661.1     73.815  -150.041
39223.4     73.903  -150.059
39793.9     73.968  -150.374
